Time (s);EOG1;Sampling Rate
0.0000000000e+00;-8.8158428090e-11;250
3.9999999572e-03;1.0451594448e-02;
7.9999999143e-03;1.0025622511e-01;
1.1999999871e-02;3.1064268709e-01;
1.5999999829e-02;3.1915198368e-01;
1.9999999786e-02;-4.1694473470e-01;
2.3999999976e-02;-1.7329762472e+00;
2.7999999933e-02;-2.6633711655e+00;
3.1999999890e-02;-2.8523026696e+00;
3.5999999847e-02;-3.0389713920e+00;
3.9999999804e-02;-3.6079388202e+00;
4.3999999994e-02;-4.0555877353e+00;
4.7999999952e-02;-4.3446542789e+00;
5.1999999909e-02;-5.2735210024e+00;
5.5999999866e-02;-7.0813866025e+00;
5.9999999823e-02;-8.9266024968e+00;
6.3999999780e-02;-1.0055278439e+01;
6.7999999970e-02;-1.0489305393e+01;
7.1999999927e-02;-1.0303488720e+01;
7.5999999885e-02;-9.2626022151e+00;
7.9999999842e-02;-7.6364581677e+00;
8.3999999799e-02;-6.3702121600e+00;
8.7999999989e-02;-5.9822898992e+00;
9.1999999946e-02;-6.0022660401e+00;
9.5999999903e-02;-5.7904834776e+00;
9.9999999860e-02;-5.4146594042e+00;
1.0399999982e-01;-5.2234907802e+00;
1.0799999977e-01;-5.1149072668e+00;
1.1199999996e-01;-5.1238421782e+00;
1.1599999992e-01;-6.1437989722e+00;
1.1999999988e-01;-8.9082774446e+00;
1.2399999984e-01;-1.2528782263e+01;
1.2799999979e-01;-1.5019686769e+01;
1.3199999975e-01;-1.5284312022e+01;
1.3599999971e-01;-1.3919481096e+01;
1.3999999966e-01;-1.1813658091e+01;
1.4399999962e-01;-8.8624539934e+00;
1.4799999958e-01;-5.2870500427e+00;
1.5199999977e-01;-3.4133277712e+00;
1.5599999973e-01;-6.1035935671e+00;
1.5999999968e-01;-1.3615025265e+01;
1.6399999964e-01;-2.3639963572e+01;
1.6799999960e-01;-3.3707094484e+01;
1.7199999979e-01;-4.1690643418e+01;
1.7599999974e-01;-4.5157233076e+01;
1.7999999970e-01;-4.2891815124e+01;
1.8399999966e-01;-3.6942770072e+01;
1.8799999962e-01;-3.1337229873e+01;
1.9199999957e-01;-2.8565150353e+01;
1.9599999976e-01;-2.8267555651e+01;
1.9999999972e-01;-2.9054768675e+01;
2.0399999968e-01;-3.0126864676e+01;
2.0799999963e-01;-3.1082463438e+01;
2.1199999959e-01;-3.1680986255e+01;
2.1599999978e-01;-3.2186039275e+01;
2.1999999974e-01;-3.2898011392e+01;
2.2399999970e-01;-3.3256121778e+01;
2.2799999965e-01;-3.2425491854e+01;
2.3199999961e-01;-3.0673256380e+01;
2.3599999957e-01;-2.9279551172e+01;
2.3999999976e-01;-2.9205116535e+01;
2.4399999972e-01;-3.0228401003e+01;
2.4799999967e-01;-3.1237825045e+01;
2.5199999963e-01;-3.1184925877e+01;
2.5599999959e-01;-2.9666743069e+01;
2.5999999954e-01;-2.6929718140e+01;
2.6399999950e-01;-2.3941137951e+01;
2.6799999946e-01;-2.2146383317e+01;
2.7199999942e-01;-2.2348043856e+01;
2.7599999937e-01;-2.3963332595e+01;
2.7999999956e-01;-2.5859241760e+01;
2.8399999952e-01;-2.7507935638e+01;
2.8799999948e-01;-2.8690839163e+01;
2.9199999943e-01;-2.8788014303e+01;
2.9599999939e-01;-2.7523223775e+01;
2.9999999958e-01;-2.5835924500e+01;
3.0399999954e-01;-2.4947730018e+01;
3.0799999950e-01;-2.5009024157e+01;
3.1199999945e-01;-2.5362200912e+01;
3.1599999941e-01;-2.5691094273e+01;
3.1999999937e-01;-2.6025025739e+01;
3.2399999956e-01;-2.5656669385e+01;
3.2799999951e-01;-2.3494679939e+01;
3.3199999947e-01;-2.0116912571e+01;
3.3599999943e-01;-1.7758162920e+01;
3.3999999939e-01;-1.7359767315e+01;
3.4399999958e-01;-1.7377999913e+01;
3.4799999953e-01;-1.6373855973e+01;
3.5199999949e-01;-1.4966751185e+01;
3.5599999945e-01;-1.4297299740e+01;
3.5999999940e-01;-1.4214332781e+01;
3.6399999936e-01;-1.4033456783e+01;
3.6799999955e-01;-1.3994069113e+01;
3.7199999951e-01;-1.4802097301e+01;
3.7599999947e-01;-1.6298025759e+01;
3.7999999942e-01;-1.7712112605e+01;
3.8399999938e-01;-1.8855249854e+01;
3.8799999934e-01;-2.0211752618e+01;
3.9199999929e-01;-2.1944242753e+01;
3.9599999925e-01;-2.3453114749e+01;
3.9999999921e-01;-2.4302834058e+01;
4.0399999917e-01;-2.4708933810e+01;
4.0799999936e-01;-2.4651279586e+01;
4.1199999931e-01;-2.3712197064e+01;
4.1599999927e-01;-2.2031916774e+01;
4.1999999923e-01;-2.0248099619e+01;
4.2399999918e-01;-1.8403489260e+01;
4.2799999937e-01;-1.5948231549e+01;
4.3199999933e-01;-1.3027282404e+01;
4.3599999929e-01;-1.0954911817e+01;
4.3999999925e-01;-1.0891839578e+01;
4.4399999920e-01;-1.2376752144e+01;
4.4799999916e-01;-1.3803710826e+01;
4.5199999935e-01;-1.4284860406e+01;
4.5599999931e-01;-1.4319432018e+01;
4.5999999926e-01;-1.4674507324e+01;
4.6399999922e-01;-1.5437409947e+01;
4.6799999918e-01;-1.6279277996e+01;
4.7199999937e-01;-1.6833433553e+01;
4.7599999933e-01;-1.6513738129e+01;
4.7999999928e-01;-1.4920269085e+01;
4.8399999924e-01;-1.2810341777e+01;
4.8799999920e-01;-1.1754275338e+01;
4.9199999915e-01;-1.2661506062e+01;
4.9599999934e-01;-1.5261719011e+01;
4.9999999930e-01;-1.8698527311e+01;
5.0399999926e-01;-2.1751876909e+01;
5.0799999922e-01;-2.2943152438e+01;
5.1199999917e-01;-2.1676951283e+01;
5.1599999913e-01;-1.9112022070e+01;
5.1999999909e-01;-1.6946441233e+01;
5.2399999904e-01;-1.5588737369e+01;
5.2799999900e-01;-1.4426119557e+01;
5.3199999896e-01;-1.3520230429e+01;
5.3599999915e-01;-1.3711826190e+01;
5.3999999911e-01;-1.4982799823e+01;
5.4399999906e-01;-1.6099478758e+01;
5.4799999902e-01;-1.6450676171e+01;
5.5199999898e-01;-1.7047825341e+01;
5.5599999917e-01;-1.8877062896e+01;
5.5999999912e-01;-2.1286799612e+01;
5.6399999908e-01;-2.2977438151e+01;
5.6799999904e-01;-2.3697564389e+01;
5.7199999900e-01;-2.3913028319e+01;
5.7599999895e-01;-2.3498716189e+01;
5.7999999914e-01;-2.1804503263e+01;
5.8399999910e-01;-1.8867158515e+01;
5.8799999906e-01;-1.5773936339e+01;
5.9199999901e-01;-1.3674512491e+01;
5.9599999897e-01;-1.3024318172e+01;
5.9999999916e-01;-1.3659229385e+01;
6.0399999912e-01;-1.4767071647e+01;
6.0799999908e-01;-1.5067562363e+01;
6.1199999903e-01;-1.4132262233e+01;
6.1599999899e-01;-1.3198749549e+01;
6.1999999895e-01;-1.3604161113e+01;
6.2399999914e-01;-1.5004078903e+01;
6.2799999909e-01;-1.5908843702e+01;
6.3199999905e-01;-1.5244215781e+01;
6.3599999901e-01;-1.3083485530e+01;
6.3999999897e-01;-1.0532290195e+01;
6.4399999892e-01;-9.2019980112e+00;
6.4799999888e-01;-1.0447451778e+01;
6.5199999884e-01;-1.3954471967e+01;
6.5599999879e-01;-1.6498398801e+01;
6.5999999875e-01;-1.3706669060e+01;
6.6399999894e-01;-3.9500617164e+00;
6.6799999890e-01;1.0510427000e+01;
6.7199999886e-01;2.5790208828e+01;
6.7599999881e-01;3.8513984810e+01;
6.7999999877e-01;4.6415546213e+01;
6.8399999896e-01;4.8564676674e+01;
6.8799999892e-01;4.5936876967e+01;
6.9199999887e-01;4.1413979998e+01;
6.9599999883e-01;3.8113463772e+01;
6.9999999879e-01;3.7276206985e+01;
7.0399999875e-01;3.8265600963e+01;
7.0799999894e-01;4.0372748626e+01;
7.1199999889e-01;4.3464755946e+01;
7.1599999885e-01;4.6703337205e+01;
7.1999999881e-01;4.8175256581e+01;
7.2399999877e-01;4.7014514283e+01;
7.2799999896e-01;4.4743938315e+01;
7.3199999891e-01;4.3352883575e+01;
7.3599999887e-01;4.3158165888e+01;
7.3999999883e-01;4.3330295171e+01;
7.4399999878e-01;4.3393551565e+01;
7.4799999874e-01;4.3243978611e+01;
7.5199999893e-01;4.2492607304e+01;
7.5599999889e-01;4.0962002524e+01;
7.5999999885e-01;3.9312482103e+01;
7.6399999880e-01;3.8193659619e+01;
7.6799999876e-01;3.7446110207e+01;
7.7199999872e-01;3.6928201164e+01;
7.7599999867e-01;3.7152877401e+01;
7.7999999863e-01;3.8272565014e+01;
7.8399999859e-01;3.9174795252e+01;
7.8799999855e-01;3.8517030893e+01;
7.9199999874e-01;3.6473102885e+01;
7.9599999869e-01;3.4442528534e+01;
7.9999999865e-01;3.3045957858e+01;
8.0399999861e-01;3.1802557635e+01;
8.0799999856e-01;3.0973391999e+01;
8.1199999875e-01;3.1972684163e+01;
8.1599999871e-01;3.5332521436e+01;
8.1999999867e-01;3.9670720848e+01;
8.2399999863e-01;4.3183048202e+01;
8.2799999858e-01;4.5131429831e+01;
8.3199999854e-01;4.5474718387e+01;
8.3599999873e-01;4.3986543068e+01;
8.3999999869e-01;4.0839858707e+01;
8.4399999864e-01;3.7631160843e+01;
8.4799999860e-01;3.6235392355e+01;
8.5199999856e-01;3.6586420045e+01;
8.5599999875e-01;3.7026749015e+01;
8.5999999871e-01;3.6642603538e+01;
8.6399999866e-01;3.5709394320e+01;
8.6799999862e-01;3.4350684624e+01;
8.7199999858e-01;3.2496867352e+01;
8.7599999853e-01;3.0752789035e+01;
8.7999999872e-01;2.9833247783e+01;
8.8399999868e-01;2.9404671862e+01;
8.8799999864e-01;2.8590333699e+01;
8.9199999860e-01;2.7631694354e+01;
8.9599999855e-01;2.7993599998e+01;
8.9999999851e-01;3.0205119300e+01;
9.0399999847e-01;3.2673651892e+01;
9.0799999842e-01;3.3624961583e+01;
9.1199999838e-01;3.2960056581e+01;
9.1599999834e-01;3.1336269400e+01;
9.1999999853e-01;2.9303701661e+01;
9.2399999849e-01;2.8136906311e+01;
9.2799999844e-01;2.9384605053e+01;
9.3199999840e-01;3.2754277775e+01;
9.3599999836e-01;3.5847544973e+01;
9.3999999855e-01;3.6504215063e+01;
9.4399999850e-01;3.4720056076e+01;
9.4799999846e-01;3.2042714243e+01;
9.5199999842e-01;2.9605219105e+01;
9.5599999838e-01;2.7498794807e+01;
9.5999999833e-01;2.5985690770e+01;
9.6399999852e-01;2.6038762078e+01;
9.6799999848e-01;2.7987122467e+01;
9.7199999844e-01;3.0665471488e+01;
9.7599999839e-01;3.2722378462e+01;
9.7999999835e-01;3.3705349160e+01;
9.8399999854e-01;3.3465011318e+01;
9.8799999850e-01;3.2125004372e+01;
9.9199999846e-01;3.1065689812e+01;
9.9599999841e-01;3.2143268419e+01;
9.9999999837e-01;3.4837343420e+01;
1.0039999983e+00;3.5568048945e+01;
1.0079999985e+00;3.1162748549e+01;
1.0119999985e+00;2.1673636703e+01;
1.0159999984e+00;8.9394121745e+00;
1.0199999984e+00;-5.7513344354e+00;
1.0239999983e+00;-2.1146554238e+01;
1.0279999983e+00;-3.4537503875e+01;
1.0319999983e+00;-4.2971378962e+01;
1.0359999982e+00;-4.5749098823e+01;
1.0399999982e+00;-4.4364204823e+01;
1.0439999981e+00;-4.0552445158e+01;
1.0479999983e+00;-3.5653933051e+01;
1.0519999983e+00;-3.1243675230e+01;
1.0559999982e+00;-2.8473450266e+01;
1.0599999982e+00;-2.6940051751e+01;
1.0639999982e+00;-2.5804270105e+01;
1.0679999983e+00;-2.5404136926e+01;
1.0719999983e+00;-2.6410110141e+01;
1.0759999983e+00;-2.7935882882e+01;
1.0799999982e+00;-2.7650490962e+01;
1.0839999982e+00;-2.4132537271e+01;
1.0879999981e+00;-1.8763739033e+01;
1.0919999983e+00;-1.4741237704e+01;
1.0959999983e+00;-1.4248625716e+01;
1.0999999982e+00;-1.6907411038e+01;
1.1039999982e+00;-2.0533698586e+01;
1.1079999981e+00;-2.2999988929e+01;
1.1119999983e+00;-2.3652383662e+01;
1.1159999983e+00;-2.2989858210e+01;
1.1199999982e+00;-2.1506602205e+01;
1.1239999982e+00;-1.9541021844e+01;
1.1279999982e+00;-1.7596064442e+01;
1.1319999981e+00;-1.6387220798e+01;
1.1359999983e+00;-1.6689965115e+01;
1.1399999983e+00;-1.8611226905e+01;
1.1439999982e+00;-2.1103462816e+01;
1.1479999982e+00;-2.2706808668e+01;
1.1519999981e+00;-2.2639453332e+01;
1.1559999981e+00;-2.1042707762e+01;
1.1599999981e+00;-1.8354005401e+01;
1.1639999980e+00;-1.5189861813e+01;
1.1679999980e+00;-1.2937809422e+01;
1.1719999979e+00;-1.2869154942e+01;
1.1759999981e+00;-1.4371770655e+01;
1.1799999981e+00;-1.5567441347e+01;
1.1839999980e+00;-1.5838544527e+01;
1.1879999980e+00;-1.6448072921e+01;
1.1919999979e+00;-1.8111118738e+01;
1.1959999981e+00;-1.9379770082e+01;
1.1999999981e+00;-1.8669899463e+01;
1.2039999980e+00;-1.6465820937e+01;
1.2079999980e+00;-1.4235714665e+01;
1.2119999980e+00;-1.2584058673e+01;
1.2159999979e+00;-1.1659168577e+01;
1.2199999981e+00;-1.2097590260e+01;
1.2239999981e+00;-1.4034422699e+01;
1.2279999980e+00;-1.5916776999e+01;
1.2319999980e+00;-1.5937002396e+01;
1.2359999979e+00;-1.4186277976e+01;
1.2399999981e+00;-1.2154187955e+01;
1.2439999981e+00;-1.0745694329e+01;
1.2479999980e+00;-9.8370507184e+00;
1.2519999980e+00;-9.3987584225e+00;
1.2559999980e+00;-9.8392950378e+00;
1.2599999979e+00;-1.0787370699e+01;
1.2639999981e+00;-1.0946744497e+01;
1.2679999981e+00;-9.9587548248e+00;
1.2719999980e+00;-8.6558794071e+00;
1.2759999980e+00;-7.2729331781e+00;
1.2799999979e+00;-5.4995922378e+00;
1.2839999979e+00;-3.8926908393e+00;
1.2879999978e+00;-3.4414822206e+00;
1.2919999978e+00;-4.0752854808e+00;
1.2959999978e+00;-4.7221966510e+00;
1.2999999977e+00;-4.8858209769e+00;
1.3039999979e+00;-5.2470718237e+00;
1.3079999979e+00;-6.3011119092e+00;
1.3119999978e+00;-7.3070071680e+00;
1.3159999978e+00;-7.2704162170e+00;
1.3199999977e+00;-6.4129833591e+00;
1.3239999979e+00;-5.7362788892e+00;
1.3279999979e+00;-5.4391277123e+00;
1.3319999978e+00;-5.1118550568e+00;
1.3359999978e+00;-5.1193904504e+00;
1.3399999978e+00;-6.0896891103e+00;
1.3439999977e+00;-7.3532218451e+00;
1.3479999979e+00;-7.3795660423e+00;
1.3519999979e+00;-5.7622088318e+00;
1.3559999978e+00;-3.7740333673e+00;
1.3599999978e+00;-2.7081905869e+00;
1.3639999977e+00;-2.8509163224e+00;
1.3679999979e+00;-4.2535053961e+00;
1.3719999979e+00;-6.8594696092e+00;
1.3759999978e+00;-9.7648571777e+00;
1.3799999978e+00;-1.1615133134e+01;
1.3839999977e+00;-1.2082879503e+01;
1.3879999977e+00;-1.2193918814e+01;
1.3919999979e+00;-1.2412706817e+01;
1.3959999979e+00;-1.1329722563e+01;
1.3999999978e+00;-7.5255690673e+00;
1.4039999978e+00;-2.1095000989e+00;
1.4079999977e+00;1.9252811934e+00;
1.4119999977e+00;2.7594404422e+00;
1.4159999976e+00;8.6667821440e-01;
1.4199999976e+00;-2.6369015620e+00;
1.4239999976e+00;-6.9379488344e+00;
1.4279999975e+00;-1.0880802308e+01;
1.4319999977e+00;-1.3071259117e+01;
1.4359999977e+00;-1.3084877131e+01;
1.4399999976e+00;-1.1779305817e+01;
1.4439999976e+00;-1.0177094551e+01;
1.4479999975e+00;-8.7427260451e+00;
1.4519999977e+00;-7.8123880182e+00;
1.4559999977e+00;-7.6081332616e+00;
1.4599999976e+00;-7.6947680719e+00;
1.4639999976e+00;-7.5221345566e+00;
1.4679999975e+00;-7.3139778120e+00;
1.4719999975e+00;-7.5441521456e+00;
1.4759999977e+00;-7.8571198691e+00;
1.4799999977e+00;-7.3059467686e+00;
1.4839999976e+00;-5.7770783380e+00;
1.4879999976e+00;-4.4230995618e+00;
1.4919999975e+00;-4.2467276189e+00;
1.4959999977e+00;-4.8572116152e+00;
1.4999999977e+00;-5.0839753326e+00;
1.5039999976e+00;-4.4594566039e+00;
1.5079999976e+00;-3.5279311939e+00;
1.5119999975e+00;-2.9875454236e+00;
1.5159999975e+00;-3.3878566793e+00;
1.5199999977e+00;-5.0862718776e+00;
1.5239999976e+00;-7.3994353785e+00;
1.5279999976e+00;-8.7732405580e+00;
1.5319999976e+00;-8.7874383743e+00;
1.5359999975e+00;-8.6875998244e+00;
1.5399999975e+00;-9.1980025294e+00;
1.5439999974e+00;-9.2645681347e+00;
1.5479999974e+00;-7.6479400912e+00;
1.5519999973e+00;-4.7989989202e+00;
1.5559999973e+00;-2.5889301262e+00;
1.5599999975e+00;-2.5017087234e+00;
1.5639999975e+00;-4.6824746790e+00;
1.5679999974e+00;-8.6292353926e+00;
1.5719999974e+00;-1.3712171950e+01;
1.5759999973e+00;-1.8357108089e+01;
1.5799999975e+00;-1.9467778817e+01;
1.5839999975e+00;-1.4218004323e+01;
1.5879999974e+00;-2.7434072536e+00;
1.5919999974e+00;1.1842215380e+01;
1.5959999973e+00;2.5572261602e+01;
1.5999999973e+00;3.5063363185e+01;
1.6039999975e+00;3.8336715359e+01;
1.6079999974e+00;3.5820612945e+01;
1.6119999974e+00;3.0519525940e+01;
1.6159999974e+00;2.6357705319e+01;
1.6199999973e+00;2.5702903642e+01;
1.6239999975e+00;2.8278703756e+01;
1.6279999975e+00;3.2136792848e+01;
1.6319999974e+00;3.5196218446e+01;
1.6359999974e+00;3.6072736233e+01;
1.6399999973e+00;3.4579692665e+01;
1.6439999973e+00;3.2008029703e+01;
1.6479999975e+00;3.0295191966e+01;
1.6519999974e+00;3.0458990908e+01;
1.6559999974e+00;3.1908934255e+01;
1.6599999974e+00;3.3528024096e+01;
1.6639999973e+00;3.5091890964e+01;
1.6679999973e+00;3.6735490260e+01;
1.6719999972e+00;3.7668988084e+01;
1.6759999972e+00;3.6739160143e+01;
1.6799999971e+00;3.3859788656e+01;
1.6839999971e+00;3.0100924743e+01;
1.6879999973e+00;2.6638456352e+01;
1.6919999972e+00;2.4192081692e+01;
1.6959999972e+00;2.3409504899e+01;
1.6999999972e+00;2.4859653372e+01;
1.7039999971e+00;2.8183204671e+01;
1.7079999973e+00;3.2036492332e+01;
1.7119999973e+00;3.5115958211e+01;
1.7159999972e+00;3.6574494482e+01;
1.7199999972e+00;3.5882383382e+01;
1.7239999971e+00;3.3308973576e+01;
1.7279999971e+00;3.0179921257e+01;
1.7319999973e+00;2.7818546838e+01;
1.7359999972e+00;2.6541501338e+01;
1.7399999972e+00;2.5992580541e+01;
1.7439999972e+00;2.5780259475e+01;
1.7479999971e+00;2.5581094897e+01;
1.7519999973e+00;2.5059349510e+01;
1.7559999973e+00;2.4133053031e+01;
1.7599999972e+00;2.3561680449e+01;
1.7639999972e+00;2.4438992670e+01;
1.7679999971e+00;2.6599643965e+01;
1.7719999971e+00;2.8538267539e+01;
1.7759999973e+00;2.9231988179e+01;
1.7799999972e+00;2.9215495024e+01;
1.7839999972e+00;2.9497405761e+01;
1.7879999971e+00;3.0070574902e+01;
1.7919999971e+00;3.0300845616e+01;
1.7959999971e+00;3.0212408307e+01;
1.7999999970e+00;3.0244833947e+01;
1.8039999970e+00;3.0154529396e+01;
1.8079999969e+00;2.9367214122e+01;
1.8119999969e+00;2.8403359273e+01;
1.8159999971e+00;2.8769761354e+01;
1.8199999970e+00;3.0897490265e+01;
1.8239999970e+00;3.3106263234e+01;
1.8279999970e+00;3.3359392650e+01;
1.8319999969e+00;3.1385757445e+01;
1.8359999971e+00;2.8310672528e+01;
1.8399999971e+00;2.4998318402e+01;
1.8439999970e+00;2.2071981799e+01;
1.8479999970e+00;2.0927194312e+01;
1.8519999969e+00;2.2767758139e+01;
1.8559999969e+00;2.6569404357e+01;
1.8599999971e+00;2.9712486866e+01;
1.8639999970e+00;3.0621791395e+01;
1.8679999970e+00;2.9550689868e+01;
1.8719999969e+00;2.7470972816e+01;
1.8759999969e+00;2.5464144467e+01;
1.8799999971e+00;2.4610013205e+01;
1.8839999971e+00;2.5156216721e+01;
1.8879999970e+00;2.5865653530e+01;
1.8919999970e+00;2.5264834346e+01;
1.8959999969e+00;2.3301951184e+01;
1.8999999969e+00;2.0854830944e+01;
1.9039999971e+00;1.8374582477e+01;
1.9079999970e+00;1.5958353304e+01;
1.9119999970e+00;1.4159191121e+01;
1.9159999969e+00;1.4105678138e+01;
1.9199999969e+00;1.6937550251e+01;
1.9239999969e+00;2.3127538767e+01;
1.9279999968e+00;3.2052857374e+01;
1.9319999968e+00;4.1984941708e+01;
1.9359999967e+00;5.0372152134e+01;
1.9399999967e+00;5.4632812184e+01;
1.9439999969e+00;5.3744114171e+01;
1.9479999968e+00;4.9092397979e+01;
1.9519999968e+00;4.3188425791e+01;
1.9559999967e+00;3.8033176834e+01;
1.9599999967e+00;3.4930812482e+01;
1.9639999969e+00;3.4543432498e+01;
1.9679999969e+00;3.6334098595e+01;
1.9719999968e+00;3.8754692952e+01;
1.9759999968e+00;4.0588262782e+01;
1.9799999967e+00;4.1738601546e+01;
1.9839999967e+00;4.2339125622e+01;
1.9879999969e+00;4.1792351604e+01;
1.9919999968e+00;3.9680221775e+01;
1.9959999968e+00;3.7015430839e+01;
1.9999999967e+00;3.5241260578e+01;
2.0039999967e+00;3.4375182959e+01;
2.0079999969e+00;3.3613057068e+01;
2.0119999968e+00;3.3169098278e+01;
2.0159999968e+00;3.3739514292e+01;
2.0199999968e+00;3.4889528144e+01;
2.0239999967e+00;3.5490070119e+01;
2.0279999967e+00;3.5178173527e+01;
2.0319999969e+00;3.4644289376e+01;
2.0359999968e+00;3.4660959257e+01;
2.0399999968e+00;3.5006724143e+01;
2.0439999967e+00;3.4811137726e+01;
2.0479999967e+00;3.4061022637e+01;
2.0519999966e+00;3.3762832892e+01;
2.0559999966e+00;3.4448199628e+01;
2.0599999966e+00;3.5639964750e+01;
2.0639999965e+00;3.6747217744e+01;
2.0679999965e+00;3.7260978240e+01;
2.0719999967e+00;3.6285197852e+01;
2.0759999966e+00;3.3234534862e+01;
2.0799999966e+00;2.9041231685e+01;
2.0839999965e+00;2.5728804688e+01;
2.0879999965e+00;2.4717101313e+01;
2.0919999967e+00;2.5977465490e+01;
2.0959999966e+00;2.8461608086e+01;
2.0999999966e+00;3.0938604973e+01;
2.1039999966e+00;3.2682922068e+01;
2.1079999965e+00;3.3573117148e+01;
2.1119999965e+00;3.3714434615e+01;
2.1159999967e+00;3.3123345698e+01;
2.1199999966e+00;3.1866984287e+01;
2.1239999966e+00;3.0625092180e+01;
2.1279999965e+00;3.0583876517e+01;
2.1319999965e+00;3.2137617420e+01;
2.1359999967e+00;3.4068638160e+01;
2.1399999966e+00;3.4581501393e+01;
2.1439999966e+00;3.3054263113e+01;
2.1479999966e+00;3.0561581774e+01;
2.1519999965e+00;2.8762470909e+01;
2.1559999965e+00;2.8362062079e+01;
2.1599999967e+00;2.8769474877e+01;
2.1639999966e+00;2.9206708387e+01;
2.1679999966e+00;2.9419270858e+01;
2.1719999965e+00;2.9180291552e+01;
2.1759999965e+00;2.8215027784e+01;
2.1799999964e+00;2.6819545950e+01;
2.1839999964e+00;2.5805797459e+01;
2.1879999964e+00;2.5864573829e+01;
2.1919999963e+00;2.6900326433e+01;
2.1959999963e+00;2.7317184097e+01;
2.1999999965e+00;2.4359414757e+01;
2.2039999964e+00;1.6137718113e+01;
2.2079999964e+00;3.3915591995e+00;
2.2119999963e+00;-1.0883000667e+01;
2.2159999963e+00;-2.3640498990e+01;
2.2199999965e+00;-3.3599926918e+01;
2.2239999964e+00;-4.0509965002e+01;
2.2279999964e+00;-4.3612570169e+01;
2.2319999964e+00;-4.2430601024e+01;
2.2359999963e+00;-3.8595511439e+01;
2.2399999963e+00;-3.5391911280e+01;
2.2439999965e+00;-3.5024396661e+01;
2.2479999964e+00;-3.6861666749e+01;
2.2519999964e+00;-3.8704639221e+01;
2.2559999963e+00;-3.9146932979e+01;
2.2599999963e+00;-3.8190764425e+01;
2.2639999965e+00;-3.6335826520e+01;
2.2679999964e+00;-3.4257863928e+01;
2.2719999964e+00;-3.3070837625e+01;
2.2759999963e+00;-3.3438012888e+01;
2.2799999963e+00;-3.4590754847e+01;
2.2839999963e+00;-3.5447118240e+01;
2.2879999964e+00;-3.6052306161e+01;
2.2919999964e+00;-3.6992918378e+01;
2.2959999964e+00;-3.8113650105e+01;
2.2999999963e+00;-3.8441349664e+01;
2.3039999963e+00;-3.7301507254e+01;
2.3079999962e+00;-3.5100838588e+01;
2.3119999962e+00;-3.2758565880e+01;
2.3159999961e+00;-3.1099235244e+01;
2.3199999961e+00;-3.0957859889e+01;
2.3239999961e+00;-3.2719422582e+01;
2.3279999963e+00;-3.5539791880e+01;
2.3319999962e+00;-3.7953635013e+01;
2.3359999962e+00;-3.9368402445e+01;
2.3399999961e+00;-4.0152336186e+01;
2.3439999961e+00;-4.0409927968e+01;
2.3479999963e+00;-3.9819971474e+01;
2.3519999962e+00;-3.8507753341e+01;
2.3559999962e+00;-3.7313961021e+01;
2.3599999961e+00;-3.7226832451e+01;
2.3639999961e+00;-3.8386384481e+01;
2.3679999961e+00;-3.9796075624e+01;
2.3719999962e+00;-4.0305358014e+01;
2.3759999962e+00;-3.9416655064e+01;
2.3799999962e+00;-3.7074947743e+01;
2.3839999961e+00;-3.3515774125e+01;
2.3879999961e+00;-2.9804243155e+01;
2.3919999963e+00;-2.7522103955e+01;
2.3959999962e+00;-2.7100320193e+01;
2.3999999962e+00;-2.7619181228e+01;
2.4039999961e+00;-2.8631984759e+01;
2.4079999961e+00;-3.0379188138e+01;
2.4119999961e+00;-3.2060475289e+01;
2.4159999962e+00;-3.2096153566e+01;
2.4199999962e+00;-3.0539411325e+01;
2.4239999962e+00;-2.9488400085e+01;
2.4279999961e+00;-3.0425861496e+01;
2.4319999961e+00;-3.2359111977e+01;
2.4359999960e+00;-3.3577575158e+01;
2.4399999960e+00;-3.3976591974e+01;
2.4439999959e+00;-3.4104729957e+01;
2.4479999959e+00;-3.3457069627e+01;
2.4519999959e+00;-3.1450145626e+01;
2.4559999960e+00;-2.8722589583e+01;
2.4599999960e+00;-2.6371514145e+01;
2.4639999960e+00;-2.4960932281e+01;
2.4679999959e+00;-2.4761333193e+01;
2.4719999959e+00;-2.5927736016e+01;
2.4759999961e+00;-2.7664352180e+01;
2.4799999960e+00;-2.8088680101e+01;
2.4839999960e+00;-2.6294457562e+01;
2.4879999959e+00;-2.3911616788e+01;
2.4919999959e+00;-2.3098531731e+01;
2.4959999959e+00;-2.3663268061e+01;
2.4999999960e+00;-2.3570842634e+01;
2.5039999960e+00;-2.1634526837e+01;
2.5079999960e+00;-1.8561410572e+01;
2.5119999959e+00;-1.5864502513e+01;
2.5159999959e+00;-1.4649855059e+01;
2.5199999961e+00;-1.5189779194e+01;
2.5239999960e+00;-1.7032944158e+01;
2.5279999960e+00;-1.9509666613e+01;
2.5319999959e+00;-2.2452844315e+01;
2.5359999959e+00;-2.6623865023e+01;
2.5399999958e+00;-3.3020645795e+01;
2.5439999960e+00;-4.1104491866e+01;
2.5479999960e+00;-4.8057838713e+01;
2.5519999960e+00;-5.0770354913e+01;
2.5559999959e+00;-4.8659926456e+01;
2.5599999959e+00;-4.3861933756e+01;
2.5639999958e+00;-3.8833506634e+01;
2.5679999958e+00;-3.4890519880e+01;
2.5719999957e+00;-3.2844756304e+01;
2.5759999957e+00;-3.3118407135e+01;
2.5799999957e+00;-3.4533958104e+01;
2.5839999958e+00;-3.4589387069e+01;
2.5879999958e+00;-3.1971837351e+01;
2.5919999958e+00;-2.8072261578e+01;
2.5959999957e+00;-2.5524213677e+01;
2.5999999957e+00;-2.5630716714e+01;
2.6039999959e+00;-2.7432945220e+01;
2.6079999958e+00;-2.9063168188e+01;
2.6119999958e+00;-2.9443282433e+01;
2.6159999957e+00;-2.8551874492e+01;
2.6199999957e+00;-2.6983583159e+01;
2.6239999956e+00;-2.5574497202e+01;
2.6279999958e+00;-2.4762148418e+01;
2.6319999958e+00;-2.4272088173e+01;
2.6359999957e+00;-2.3747236981e+01;
2.6399999957e+00;-2.3362301354e+01;
2.6439999957e+00;-2.3328004122e+01;
2.6479999959e+00;-2.3152657698e+01;
2.6519999958e+00;-2.2211275774e+01;
2.6559999958e+00;-2.0730590087e+01;
2.6599999957e+00;-1.9368846850e+01;
2.6639999957e+00;-1.8356217022e+01;
2.6679999956e+00;-1.7868995938e+01;
2.6719999958e+00;-1.8333643740e+01;
2.6759999958e+00;-1.9570289889e+01;
2.6799999957e+00;-2.0572155582e+01;
2.6839999957e+00;-2.0571695490e+01;
2.6879999957e+00;-1.9753531532e+01;
2.6919999956e+00;-1.8906707103e+01;
2.6959999956e+00;-1.8611059445e+01;
2.6999999955e+00;-1.8703022616e+01;
2.7039999955e+00;-1.8677803656e+01;
2.7079999954e+00;-1.8574513176e+01;
2.7119999956e+00;-1.8818391748e+01;
2.7159999956e+00;-1.9203330771e+01;
2.7199999955e+00;-1.9054005412e+01;
2.7239999955e+00;-1.8345206436e+01;
2.7279999955e+00;-1.7512569757e+01;
2.7319999957e+00;-1.6450195327e+01;
2.7359999956e+00;-1.4794199430e+01;
2.7399999956e+00;-1.2884126141e+01;
2.7439999955e+00;-1.1631841016e+01;
2.7479999955e+00;-1.1470751245e+01;
2.7519999954e+00;-1.1919895839e+01;
2.7559999956e+00;-1.2370401332e+01;
2.7599999956e+00;-1.2962680459e+01;
2.7639999955e+00;-1.4254584948e+01;
2.7679999955e+00;-1.6036300877e+01;
2.7719999955e+00;-1.7209393762e+01;
2.7759999956e+00;-1.6957243691e+01;
2.7799999956e+00;-1.5088531373e+01;
2.7839999956e+00;-1.1624176013e+01;
2.7879999955e+00;-7.2805399736e+00;
2.7919999955e+00;-3.9132748136e+00;
2.7959999954e+00;-3.2286190934e+00;
2.7999999956e+00;-5.1116992377e+00;
2.8039999956e+00;-8.0749851753e+00;
2.8079999955e+00;-1.0858558863e+01;
2.8119999955e+00;-1.2643467047e+01;
2.8159999955e+00;-1.2639258583e+01;
2.8199999954e+00;-1.0927414713e+01;
2.8239999954e+00;-9.2211959900e+00;
2.8279999953e+00;-9.3362869468e+00;
2.8319999953e+00;-1.0988756069e+01;
2.8359999952e+00;-1.2273844459e+01;
2.8399999954e+00;-1.2135307861e+01;
2.8439999954e+00;-1.1338810764e+01;
2.8479999953e+00;-1.1258834365e+01;
2.8519999953e+00;-1.2402099425e+01;
2.8559999953e+00;-1.4025982266e+01;
2.8599999954e+00;-1.4808676839e+01;
2.8639999954e+00;-1.3609943537e+01;
2.8679999954e+00;-1.0162970714e+01;
2.8719999953e+00;-5.8393749596e+00;
2.8759999953e+00;-3.0078510810e+00;
2.8799999952e+00;-2.9688409879e+00;
2.8839999954e+00;-5.1382689518e+00;
2.8879999954e+00;-8.1654091050e+00;
2.8919999953e+00;-1.0998048968e+01;
2.8959999953e+00;-1.3009162829e+01;
2.8999999953e+00;-1.4190324877e+01;
2.9039999954e+00;-1.5530728166e+01;
2.9079999954e+00;-1.7909612210e+01;
2.9119999954e+00;-1.9792259325e+01;
2.9159999953e+00;-1.7417685500e+01;
2.9199999953e+00;-8.4977734637e+00;
2.9239999952e+00;5.3932467982e+00;
2.9279999954e+00;2.0947514335e+01;
2.9319999954e+00;3.6180719051e+01;
2.9359999953e+00;5.0176047084e+01;
2.9399999953e+00;6.1036759009e+01;
2.9439999952e+00;6.6319533341e+01;
2.9479999952e+00;6.5789886850e+01;
2.9519999952e+00;6.2003898510e+01;
2.9559999951e+00;5.7617179868e+01;
2.9599999951e+00;5.3587445735e+01;
2.9639999950e+00;5.0157306126e+01;
2.9679999952e+00;4.7741441670e+01;
2.9719999952e+00;4.6425109962e+01;
2.9759999951e+00;4.5897841063e+01;
2.9799999951e+00;4.6119609881e+01;
2.9839999950e+00;4.7324559754e+01;
2.9879999952e+00;4.9398203852e+01;
2.9919999952e+00;5.1686518401e+01;
2.9959999952e+00;5.3517383737e+01;
2.9999999951e+00;5.4775330751e+01;
3.0039999951e+00;5.5425457633e+01;
3.0079999950e+00;5.4730364778e+01;
3.0119999952e+00;5.2328576780e+01;
3.0159999952e+00;4.9497287501e+01;
3.0199999951e+00;4.7698760541e+01;
3.0239999951e+00;4.6807830533e+01;
3.0279999950e+00;4.6018369517e+01;
3.0319999952e+00;4.5455347659e+01;
3.0359999952e+00;4.5653881511e+01;
3.0399999951e+00;4.6100504269e+01;
3.0439999951e+00;4.5720174300e+01;
3.0479999951e+00;4.4571234497e+01;
3.0519999950e+00;4.3759964089e+01;
3.0559999952e+00;4.3759321548e+01;
3.0599999952e+00;4.3794846851e+01;
3.0639999951e+00;4.2999281039e+01;
3.0679999951e+00;4.1452384068e+01;
3.0719999950e+00;3.9675094217e+01;
3.0759999950e+00;3.7781117849e+01;
3.0799999950e+00;3.5809153567e+01;
3.0839999949e+00;3.4190920586e+01;
3.0879999949e+00;3.2971494796e+01;
3.0919999948e+00;3.1272450378e+01;
3.0959999950e+00;2.8736412270e+01;
3.0999999950e+00;2.6759405099e+01;
3.1039999949e+00;2.6907872595e+01;
3.1079999949e+00;2.8913796388e+01;
3.1119999948e+00;3.1433115202e+01;
3.1159999950e+00;3.3703032332e+01;
3.1199999950e+00;3.5434030877e+01;
3.1239999949e+00;3.6188822555e+01;
3.1279999949e+00;3.5925125840e+01;
3.1319999949e+00;3.5607846820e+01;
3.1359999948e+00;3.6162846949e+01;
3.1399999950e+00;3.7025184889e+01;
3.1439999950e+00;3.7006207281e+01;
3.1479999949e+00;3.6192615975e+01;
3.1519999949e+00;3.5681818298e+01;
3.1559999948e+00;3.5895521393e+01;
3.1599999950e+00;3.5812355306e+01;
3.1639999950e+00;3.3687920094e+01;
3.1679999949e+00;2.8485123303e+01;
3.1719999949e+00;2.0354733224e+01;
3.1759999949e+00;1.0416080715e+01;
3.1799999948e+00;1.2594463917e+00;
3.1839999950e+00;-3.6775691614e+00;
3.1879999950e+00;-3.1255902635e+00;
3.1919999949e+00;2.9505058614e-01;
3.1959999949e+00;2.5519572521e+00;
3.1999999948e+00;2.1276562594e+00;
3.2039999948e+00;7.6592559594e-01;
3.2079999947e+00;5.9314958379e-01;
3.2119999947e+00;1.8944422805e+00;
3.2159999947e+00;3.9744279753e+00;
3.2199999946e+00;6.3098580372e+00;
3.2239999948e+00;8.1493101344e+00;
3.2279999948e+00;8.5012263676e+00;
3.2319999947e+00;7.1231380780e+00;
3.2359999947e+00;4.8075966971e+00;
3.2399999946e+00;2.5705085450e+00;
3.2439999948e+00;1.0557208492e+00;
3.2479999948e+00;6.8341167580e-01;
3.2519999947e+00;1.6713412007e+00;
3.2559999947e+00;3.6632313247e+00;
3.2599999947e+00;5.7364651684e+00;
3.2639999946e+00;7.0184504405e+00;
3.2679999948e+00;7.0864460371e+00;
3.2719999948e+00;5.6308343175e+00;
3.2759999947e+00;2.4717158818e+00;
3.2799999947e+00;-1.4127227598e+00;
3.2839999946e+00;-3.8939003359e+00;
3.2879999948e+00;-3.7985218991e+00;
3.2919999948e+00;-2.1288345164e+00;
3.2959999947e+00;-5.0985704287e-01;
3.2999999947e+00;6.1343094011e-01;
3.3039999946e+00;1.6556135405e+00;
3.3079999946e+00;2.4896115358e+00;
3.3119999948e+00;2.2832296845e+00;
3.3159999948e+00;7.4048075499e-01;
3.3199999947e+00;-1.1981784728e+00;
3.3239999947e+00;-2.2291983962e+00;
3.3279999946e+00;-2.1816155130e+00;
3.3319999946e+00;-2.2857661820e+00;
3.3359999945e+00;-3.5752652307e+00;
3.3399999945e+00;-5.5336533253e+00;
3.3439999945e+00;-6.7528365738e+00;
3.3479999944e+00;-6.3026703239e+00;
3.3519999946e+00;-4.3950417562e+00;
3.3559999946e+00;-2.2762520022e+00;
3.3599999945e+00;-1.1597843442e+00;
3.3639999945e+00;-1.0055054040e+00;
3.3679999944e+00;-8.7224575915e-01;
3.3719999946e+00;-3.2685833395e-01;
3.3759999946e+00;2.1166467771e-01;
3.3799999945e+00;4.2888371705e-01;
3.3839999945e+00;6.2675482684e-01;
3.3879999944e+00;9.3114527984e-01;
3.3919999944e+00;8.8736623497e-01;
3.3959999946e+00;4.6563151217e-01;
3.3999999946e+00;5.2617423880e-01;
3.4039999945e+00;1.6965689048e+00;
3.4079999945e+00;3.3360681843e+00;
3.4119999944e+00;4.2077945537e+00;
3.4159999946e+00;3.9727100716e+00;
3.4199999946e+00;3.1733909642e+00;
3.4239999945e+00;2.0820609718e+00;
3.4279999945e+00;7.3065450107e-01;
3.4319999944e+00;-1.9199437025e-01;
3.4359999944e+00;4.4312703572e-01;
3.4399999946e+00;2.7363935131e+00;
3.4439999945e+00;5.1127537189e+00;
3.4479999945e+00;5.8931891077e+00;
3.4519999945e+00;4.9356476988e+00;
3.4559999944e+00;3.0151459696e+00;
3.4599999944e+00;4.7384624058e-01;
3.4639999943e+00;-2.4127297970e+00;
3.4679999943e+00;-4.1199457275e+00;
3.4719999942e+00;-2.7090041185e+00;
3.4759999942e+00;1.5869898284e+00;
3.4799999944e+00;6.2661163052e+00;
3.4839999944e+00;9.1275816369e+00;
3.4879999943e+00;9.6265345000e+00;
3.4919999943e+00;8.2537334814e+00;
3.4959999942e+00;6.0192981891e+00;
3.4999999944e+00;4.1838417700e+00;
3.5039999944e+00;3.3000136333e+00;
3.5079999943e+00;2.6914805632e+00;
3.5119999943e+00;1.5849315502e+00;
3.5159999942e+00;3.9400313630e-01;
3.5199999942e+00;1.6116863381e-01;
3.5239999944e+00;1.0477755960e+00;
3.5279999943e+00;2.2038331103e+00;
3.5319999943e+00;3.0041618609e+00;
3.5359999943e+00;3.5692311401e+00;
3.5399999942e+00;3.8581483539e+00;
3.5439999944e+00;3.1368937139e+00;
3.5479999944e+00;1.0039961323e+00;
3.5519999943e+00;-1.6932299163e+00;
3.5559999943e+00;-3.6031913800e+00;
3.5599999942e+00;-4.2185731659e+00;
3.5639999942e+00;-4.0384403240e+00;
3.5679999944e+00;-3.6743297513e+00;
3.5719999943e+00;-3.4278389607e+00;
3.5759999943e+00;-3.3013977724e+00;
3.5799999943e+00;-2.6811853270e+00;
3.5839999942e+00;-7.8669098050e-01;
3.5879999942e+00;1.8712282057e+00;
3.5919999941e+00;3.3514598442e+00;
3.5959999941e+00;2.3412938856e+00;
3.5999999940e+00;-8.6991761767e-02;
3.6039999940e+00;-1.4812152527e+00;
3.6079999942e+00;-5.5102351002e-01;
3.6119999941e+00;2.0023109618e+00;
3.6159999941e+00;4.7347761149e+00;
3.6199999941e+00;6.3901956018e+00;
3.6239999940e+00;5.8145910659e+00;
3.6279999942e+00;2.6310675449e+00;
3.6319999942e+00;-1.4756279844e+00;
3.6359999941e+00;-3.7538466146e+00;
3.6399999941e+00;-3.2461739496e+00;
3.6439999940e+00;-1.2936063298e+00;
3.6479999940e+00;8.4584231158e-01;
3.6519999942e+00;3.2489727252e+00;
3.6559999941e+00;6.1698839066e+00;
3.6599999941e+00;9.0227970430e+00;
3.6639999941e+00;1.0819081988e+01;
3.6679999940e+00;1.1140807267e+01;
3.6719999942e+00;1.0238399201e+01;
3.6759999942e+00;8.2185878421e+00;
3.6799999941e+00;4.9418872272e+00;
3.6839999941e+00;7.7686935927e-01;
3.6879999940e+00;-3.3964599189e+00;
3.6919999940e+00;-6.9094890704e+00;
3.6959999942e+00;-9.2436344756e+00;
3.6999999941e+00;-9.6238838054e+00;
3.7039999941e+00;-7.8690633181e+00;
3.7079999940e+00;-5.2830306748e+00;
3.7119999940e+00;-3.7325780644e+00;
3.7159999940e+00;-4.3652034155e+00;
3.7199999939e+00;-7.4897236794e+00;
3.7239999939e+00;-1.2793197036e+01;
3.7279999938e+00;-1.9414306973e+01;
3.7319999938e+00;-2.6047626432e+01;
3.7359999940e+00;-3.0925373974e+01;
3.7399999939e+00;-3.2280152446e+01;
3.7439999939e+00;-2.9683733994e+01;
3.7479999939e+00;-2.4464298407e+01;
3.7519999938e+00;-1.8493442200e+01;
3.7559999940e+00;-1.3571558350e+01;
3.7599999940e+00;-1.1375988246e+01;
3.7639999939e+00;-1.2352911598e+01;
3.7679999939e+00;-1.5261664790e+01;
3.7719999938e+00;-1.8667857915e+01;
3.7759999938e+00;-2.1877841473e+01;
3.7799999940e+00;-2.4034528617e+01;
3.7839999939e+00;-2.3964453248e+01;
3.7879999939e+00;-2.1843858871e+01;
3.7919999938e+00;-1.9596428244e+01;
3.7959999938e+00;-1.8726541272e+01;
3.7999999940e+00;-1.8830789267e+01;
3.8039999940e+00;-1.8649336967e+01;
3.8079999939e+00;-1.7733801659e+01;
3.8119999939e+00;-1.6753314662e+01;
3.8159999938e+00;-1.6422849005e+01;
3.8199999938e+00;-1.6754194654e+01;
3.8239999940e+00;-1.7600927936e+01;
3.8279999939e+00;-1.8992496690e+01;
3.8319999939e+00;-2.0325771536e+01;
3.8359999938e+00;-2.0255018729e+01;
3.8399999938e+00;-1.8385485310e+01;
3.8439999938e+00;-1.6089322348e+01;
3.8479999937e+00;-1.4585763140e+01;
3.8519999937e+00;-1.3540643955e+01;
3.8559999936e+00;-1.2516851685e+01;
3.8599999936e+00;-1.2235664131e+01;
3.8639999938e+00;-1.3425625669e+01;
3.8679999937e+00;-1.5528050762e+01;
3.8719999937e+00;-1.7402450287e+01;
3.8759999936e+00;-1.8644927018e+01;
3.8799999936e+00;-1.9425855735e+01;
3.8839999938e+00;-1.9642509518e+01;
3.8879999937e+00;-1.8960869500e+01;
3.8919999937e+00;-1.7367440470e+01;
3.8959999937e+00;-1.5498176136e+01;
3.8999999936e+00;-1.4310541586e+01;
3.9039999936e+00;-1.4315175246e+01;
3.9079999938e+00;-1.5378029134e+01;
3.9119999937e+00;-1.6822666402e+01;
3.9159999937e+00;-1.7520613940e+01;
3.9199999936e+00;-1.6755235467e+01;
3.9239999936e+00;-1.5125330645e+01;
3.9279999938e+00;-1.3873802512e+01;
3.9319999937e+00;-1.3379807756e+01;
3.9359999937e+00;-1.2937353934e+01;
3.9399999937e+00;-1.1979131044e+01;
3.9439999936e+00;-1.0927563728e+01;
3.9479999936e+00;-1.0558301988e+01;
3.9519999938e+00;-1.0932225533e+01;
3.9559999937e+00;-1.1495611675e+01;
3.9599999937e+00;-1.1975169586e+01;
3.9639999936e+00;-1.2364025800e+01;
3.9679999936e+00;-1.2282788766e+01;
3.9719999935e+00;-1.1493976467e+01;
3.9759999935e+00;-1.0748378551e+01;
3.9799999935e+00;-1.1012430651e+01;
3.9839999934e+00;-1.2104375992e+01;
3.9879999934e+00;-1.2822020212e+01;
3.9919999936e+00;-1.2310660457e+01;
3.9959999935e+00;-1.0801228278e+01;
3.9999999935e+00;-8.9375034200e+00;
4.0039999934e+00;-7.1746977424e+00;
4.0079999934e+00;-6.2958439168e+00;
4.0119999936e+00;-7.3085324979e+00;
4.0159999935e+00;-9.8690618647e+00;
4.0199999935e+00;-1.1979783276e+01;
4.0239999935e+00;-1.2236634113e+01;
4.0279999934e+00;-1.1236158670e+01;
4.0319999934e+00;-1.0114507371e+01;
4.0359999936e+00;-9.2189712272e+00;
4.0399999935e+00;-8.7098508105e+00;
4.0439999935e+00;-8.9628965614e+00;
4.0479999934e+00;-9.8472616410e+00;
4.0519999934e+00;-1.0335061499e+01;
4.0559999936e+00;-9.4534865673e+00;
4.0599999935e+00;-7.5506609387e+00;
4.0639999935e+00;-5.9625262094e+00;
4.0679999935e+00;-5.5862856604e+00;
4.0719999934e+00;-6.4584973871e+00;
4.0759999934e+00;-8.2707875750e+00;
4.0799999936e+00;-1.0461300443e+01;
4.0839999935e+00;-1.2055134362e+01;
4.0879999935e+00;-1.1975478373e+01;
4.0919999934e+00;-9.7187206108e+00;
4.0959999934e+00;-6.0442671638e+00;
4.0999999933e+00;-2.8541736717e+00;
4.1039999933e+00;-2.0203373281e+00;
4.1079999933e+00;-4.3254223326e+00;
4.1119999932e+00;-8.8777414543e+00;
4.1159999932e+00;-1.3189236904e+01;
4.1199999934e+00;-1.4942072447e+01;
4.1239999933e+00;-1.4069309098e+01;
4.1279999933e+00;-1.2250947163e+01;
4.1319999932e+00;-1.0719872993e+01;
4.1359999932e+00;-9.6494696451e+00;
4.1399999934e+00;-9.1203166965e+00;
4.1439999933e+00;-9.3018691410e+00;
4.1479999933e+00;-9.5986194632e+00;
4.1519999932e+00;-8.6959421228e+00;
4.1559999932e+00;-6.0178649750e+00;
4.1599999932e+00;-2.8688718243e+00;
4.1639999934e+00;-2.0297115876e+00;
4.1679999933e+00;-6.0797268300e+00;
4.1719999933e+00;-1.5681105781e+01;
4.1759999932e+00;-2.8893164360e+01;
4.1799999932e+00;-4.1646879192e+01;
4.1839999934e+00;-4.9420003285e+01;
4.1879999933e+00;-4.9853889126e+01;
4.1919999933e+00;-4.4609201674e+01;
4.1959999932e+00;-3.8184227107e+01;
4.1999999932e+00;-3.4292147495e+01;
4.2039999932e+00;-3.3524631208e+01;
4.2079999933e+00;-3.4302941729e+01;
4.2119999933e+00;-3.5246690592e+01;
4.2159999933e+00;-3.6102274036e+01;
4.2199999932e+00;-3.6979933003e+01;
4.2239999932e+00;-3.7929742576e+01;
4.2279999931e+00;-3.9211930729e+01;
4.2319999931e+00;-4.0858715698e+01;
4.2359999930e+00;-4.2083513378e+01;
4.2399999930e+00;-4.2059408004e+01;
4.2439999930e+00;-4.0862801331e+01;
4.2479999932e+00;-3.8901553595e+01;
4.2519999931e+00;-3.6291881303e+01;
4.2559999931e+00;-3.3461778799e+01;
4.2599999930e+00;-3.1302071707e+01;
4.2639999930e+00;-3.0185800152e+01;
4.2679999932e+00;-2.9602564075e+01;
4.2719999931e+00;-2.9165579589e+01;
4.2759999931e+00;-2.9495250979e+01;
4.2799999930e+00;-3.1268241856e+01;
4.2839999930e+00;-3.3697556972e+01;
4.2879999930e+00;-3.5193217628e+01;
4.2919999931e+00;-3.5224893780e+01;
4.2959999931e+00;-3.4525668566e+01;
4.2999999931e+00;-3.3832221961e+01;
4.3039999930e+00;-3.3178470503e+01;
4.3079999930e+00;-3.2398691738e+01;
4.3119999932e+00;-3.1651488683e+01;
4.3159999931e+00;-3.0964744163e+01;
4.3199999931e+00;-2.9850433195e+01;
4.3239999930e+00;-2.8203832661e+01;
4.3279999930e+00;-2.7050561837e+01;
4.3319999930e+00;-2.7351191365e+01;
4.3359999931e+00;-2.8608187676e+01;
4.3399999931e+00;-2.9737131305e+01;
4.3439999931e+00;-3.0671496830e+01;
4.3479999930e+00;-3.1923553201e+01;
4.3519999930e+00;-3.3009988139e+01;
4.3559999929e+00;-3.2711950040e+01;
4.3599999929e+00;-3.0923233328e+01;
4.3639999928e+00;-2.8773281981e+01;
4.3679999928e+00;-2.6907621157e+01;
4.3719999928e+00;-2.5247970793e+01;
4.3759999929e+00;-2.4339445390e+01;
4.3799999929e+00;-2.5393780774e+01;
4.3839999929e+00;-2.8570301261e+01;
4.3879999928e+00;-3.2030934555e+01;
4.3919999928e+00;-3.3587980740e+01;
4.3959999930e+00;-3.3003475100e+01;
4.3999999929e+00;-3.1932904747e+01;
4.4039999929e+00;-3.1772794968e+01;
4.4079999928e+00;-3.1646837534e+01;
4.4119999928e+00;-2.8561533547e+01;
4.4159999928e+00;-1.9981211159e+01;
4.4199999929e+00;-6.1289302955e+00;
4.4239999929e+00;1.0200715110e+01;
4.4279999929e+00;2.5498045901e+01;
4.4319999928e+00;3.7248387829e+01;
4.4359999928e+00;4.4530679901e+01;
4.4399999930e+00;4.7559033294e+01;
4.4439999929e+00;4.7018847871e+01;
4.4479999929e+00;4.4089023900e+01;
4.4519999928e+00;4.0774361276e+01;
4.4559999928e+00;3.8995646179e+01;
4.4599999927e+00;3.8744921256e+01;
4.4639999929e+00;3.8411054924e+01;
4.4679999929e+00;3.7382523023e+01;
4.4719999928e+00;3.6672183776e+01;
4.4759999928e+00;3.6838450013e+01;
4.4799999928e+00;3.7170033384e+01;
4.4839999927e+00;3.7206824367e+01;
4.4879999927e+00;3.7414170766e+01;
4.4919999926e+00;3.7898462261e+01;
4.4959999926e+00;3.8016114790e+01;
4.4999999925e+00;3.7757667892e+01;
4.5039999927e+00;3.7948568932e+01;
4.5079999927e+00;3.8557820358e+01;
4.5119999927e+00;3.8151691064e+01;
4.5159999926e+00;3.5710027114e+01;
4.5199999926e+00;3.2159085327e+01;
4.5239999928e+00;2.9328757093e+01;
4.5279999927e+00;2.7879530312e+01;
4.5319999927e+00;2.7181123931e+01;
4.5359999926e+00;2.6976141941e+01;
4.5399999926e+00;2.7888015079e+01;
4.5439999925e+00;3.0119561391e+01;
4.5479999927e+00;3.2835541093e+01;
4.5519999927e+00;3.4992835120e+01;
4.5559999926e+00;3.5866535957e+01;
4.5599999926e+00;3.4976768473e+01;
4.5639999926e+00;3.2491300998e+01;
4.5679999928e+00;2.9626987211e+01;
4.5719999927e+00;2.8035127488e+01;
4.5759999927e+00;2.8578395641e+01;
4.5799999926e+00;3.0712376159e+01;
4.5839999926e+00;3.3309694225e+01;
4.5879999925e+00;3.5849120628e+01;
4.5919999927e+00;3.8084855494e+01;
4.5959999927e+00;3.9239662008e+01;
4.5999999926e+00;3.8864584814e+01;
4.6039999926e+00;3.8054469855e+01;
4.6079999926e+00;3.8613152630e+01;
4.6119999925e+00;4.0983960849e+01;
4.6159999925e+00;4.3719865231e+01;
4.6199999924e+00;4.5197687718e+01;
4.6239999924e+00;4.5192823504e+01;
4.6279999923e+00;4.4724408858e+01;
4.6319999925e+00;4.5107106810e+01;
4.6359999925e+00;4.6723863598e+01;
4.6399999924e+00;4.8253519127e+01;
4.6439999924e+00;4.8044658994e+01;
4.6479999924e+00;4.6331757809e+01;
4.6519999926e+00;4.5109689495e+01;
4.6559999925e+00;4.5666892461e+01;
4.6599999925e+00;4.6640923068e+01;
4.6639999924e+00;4.4910116041e+01;
4.6679999924e+00;3.8793901746e+01;
4.6719999923e+00;3.0081792609e+01;
4.6759999925e+00;2.2443835477e+01;
4.6799999925e+00;1.8555351533e+01;
4.6839999924e+00;1.9085645407e+01;
4.6879999924e+00;2.2835290736e+01;
4.6919999924e+00;2.6871433610e+01;
4.6959999925e+00;2.8043021687e+01;
4.6999999925e+00;2.5624273754e+01;
4.7039999925e+00;2.1791757406e+01;
4.7079999924e+00;1.9037706908e+01;
4.7119999924e+00;1.7698156644e+01;
4.7159999923e+00;1.6418369592e+01;
4.7199999925e+00;1.4498369120e+01;
4.7239999925e+00;1.2677618273e+01;
4.7279999924e+00;1.1641547685e+01;
4.7319999924e+00;1.1066081885e+01;
4.7359999924e+00;1.0503079953e+01;
4.7399999923e+00;1.0126398769e+01;
4.7439999923e+00;1.0050443779e+01;
4.7479999922e+00;9.7320925733e+00;
4.7519999922e+00;8.7671527619e+00;
4.7559999921e+00;7.6861410605e+00;
4.7599999923e+00;7.2806084409e+00;
4.7639999923e+00;7.7136798769e+00;
4.7679999922e+00;8.7655180039e+00;
4.7719999922e+00;1.0253088175e+01;
4.7759999922e+00;1.1727505234e+01;
4.7799999923e+00;1.2456472217e+01;
4.7839999923e+00;1.2425989569e+01;
4.7879999923e+00;1.2720675700e+01;
4.7919999922e+00;1.4092096890e+01;
4.7959999922e+00;1.5932350705e+01;
4.7999999921e+00;1.7434673086e+01;
4.8039999923e+00;1.8769216592e+01;
4.8079999923e+00;2.0138206780e+01;
4.8119999922e+00;2.0488587879e+01;
4.8159999922e+00;1.8358917987e+01;
4.8199999921e+00;1.3897752363e+01;
4.8239999923e+00;9.1530579428e+00;
4.8279999923e+00;5.9594628068e+00;
4.8319999923e+00;4.4465692956e+00;
4.8359999922e+00;4.1847871735e+00;
4.8399999922e+00;5.3411126386e+00;
4.8439999921e+00;7.8953204399e+00;
4.8479999923e+00;1.0909851701e+01;
4.8519999923e+00;1.3333218930e+01;
4.8559999922e+00;1.4929978328e+01;
4.8599999922e+00;1.5783925097e+01;
4.8639999921e+00;1.5465625979e+01;
4.8679999921e+00;1.3702821404e+01;
4.8719999921e+00;1.1330626339e+01;
4.8759999920e+00;9.3502120531e+00;
4.8799999920e+00;7.7075915745e+00;
4.8839999919e+00;6.2997318814e+00;
4.8879999921e+00;6.0651255923e+00;
4.8919999921e+00;7.4572756134e+00;
4.8959999920e+00;9.0443052434e+00;
4.8999999920e+00;9.1809267627e+00;
4.9039999919e+00;8.1171813293e+00;
4.9079999921e+00;7.4530153800e+00;
4.9119999921e+00;8.3000308554e+00;
4.9159999921e+00;1.0680088883e+01;
4.9199999920e+00;1.4189183205e+01;
4.9239999920e+00;1.8265136480e+01;
4.9279999919e+00;2.1647829781e+01;
4.9319999921e+00;2.2827128587e+01;
4.9359999921e+00;2.1748410169e+01;
4.9399999920e+00;1.9958566705e+01;
4.9439999920e+00;1.8522477988e+01;
4.9479999919e+00;1.6933556007e+01;
4.9519999921e+00;1.4625459066e+01;
4.9559999921e+00;1.2406807487e+01;
4.9599999920e+00;1.1566977533e+01;
4.9639999920e+00;1.2588421208e+01;
4.9679999920e+00;1.5399390847e+01;
4.9719999919e+00;1.9385210198e+01;
4.9759999921e+00;2.2066520076e+01;
4.9799999921e+00;1.9591851032e+01;
4.9839999920e+00;1.0452630814e+01;
4.9879999920e+00;-2.6160844763e+00;
4.9919999919e+00;-1.5664259003e+01;
4.9959999919e+00;-2.6559697254e+01;
4.9999999919e+00;-3.4245343468e+01;
5.0039999918e+00;-3.7592098879e+01;
5.0079999918e+00;-3.6567332281e+01;
5.0119999917e+00;-3.3162921063e+01;
5.0159999919e+00;-2.9825543518e+01;
5.0199999919e+00;-2.7366657974e+01;
5.0239999918e+00;-2.5276157043e+01;
5.0279999918e+00;-2.3637435536e+01;
5.0319999917e+00;-2.3353014836e+01;
5.0359999919e+00;-2.4544195942e+01;
5.0399999919e+00;-2.6114586790e+01;
5.0439999918e+00;-2.7074243391e+01;
5.0479999918e+00;-2.7403802837e+01;
5.0519999918e+00;-2.7388481549e+01;
5.0559999917e+00;-2.6821422373e+01;
5.0599999919e+00;-2.5532084786e+01;
5.0639999919e+00;-2.4033921401e+01;
5.0679999918e+00;-2.2894663723e+01;
5.0719999918e+00;-2.2211378133e+01;
5.0759999917e+00;-2.2140040256e+01;
5.0799999919e+00;-2.3132467469e+01;
5.0839999919e+00;-2.5178533755e+01;
5.0879999918e+00;-2.7257803044e+01;
5.0919999918e+00;-2.8195126192e+01;
5.0959999918e+00;-2.7931074108e+01;
5.0999999917e+00;-2.7098125923e+01;
5.1039999919e+00;-2.5568599389e+01;
5.1079999919e+00;-2.2743036139e+01;
5.1119999918e+00;-1.9209105184e+01;
5.1159999918e+00;-1.6773434424e+01;
5.1199999917e+00;-1.6686038769e+01;
5.1239999917e+00;-1.8710738069e+01;
5.1279999916e+00;-2.1941247489e+01;
5.1319999916e+00;-2.5652601664e+01;
5.1359999916e+00;-2.9114772147e+01;
5.1399999915e+00;-3.1243699776e+01;
5.1439999917e+00;-3.1132847678e+01;
5.1479999917e+00;-2.9005708709e+01;
5.1519999916e+00;-2.6090429175e+01;
5.1559999916e+00;-2.3445057917e+01;
5.1599999915e+00;-2.1445162497e+01;
5.1639999917e+00;-1.9975285407e+01;
5.1679999917e+00;-1.8312842669e+01;
5.1719999916e+00;-1.5762015685e+01;
5.1759999916e+00;-1.3268365508e+01;
5.1799999916e+00;-1.3169671328e+01;
5.1839999915e+00;-1.6492792642e+01;
5.1879999917e+00;-2.1504287912e+01;
5.1919999917e+00;-2.5487851072e+01;
5.1959999916e+00;-2.7118895110e+01;
5.1999999916e+00;-2.6725915525e+01;
5.2039999915e+00;-2.5117182545e+01;
5.2079999917e+00;-2.2894645208e+01;
5.2119999917e+00;-2.0588937783e+01;
5.2159999916e+00;-1.8800273471e+01;
5.2199999916e+00;-1.7814697242e+01;
5.2239999915e+00;-1.7195161146e+01;
5.2279999915e+00;-1.6420131282e+01;
5.2319999917e+00;-1.5787012222e+01;
5.2359999917e+00;-1.5744210993e+01;
5.2399999916e+00;-1.6010717044e+01;
5.2439999916e+00;-1.6373396333e+01;
5.2479999915e+00;-1.7170380303e+01;
5.2519999915e+00;-1.8272440138e+01;
5.2559999914e+00;-1.8858899281e+01;
5.2599999914e+00;-1.8736472278e+01;
5.2639999914e+00;-1.8837188498e+01;
5.2679999913e+00;-1.9834815645e+01;
5.2719999915e+00;-2.1234073826e+01;
5.2759999915e+00;-2.2373734080e+01;
5.2799999914e+00;-2.3280262490e+01;
5.2839999914e+00;-2.3889480683e+01;
5.2879999913e+00;-2.3350322343e+01;
5.2919999915e+00;-2.1117613304e+01;
5.2959999915e+00;-1.8233800467e+01;
5.2999999914e+00;-1.6402591295e+01;
5.3039999914e+00;-1.6130968860e+01;
5.3079999913e+00;-1.6794179573e+01;
5.3119999913e+00;-1.8008674147e+01;
5.3159999915e+00;-1.9703891855e+01;
5.3199999915e+00;-2.1264142089e+01;
5.3239999914e+00;-2.2004325134e+01;
5.3279999914e+00;-2.2277989588e+01;
5.3319999913e+00;-2.2924307527e+01;
5.3359999915e+00;-2.3843710066e+01;
5.3399999915e+00;-2.4159670433e+01;
5.3439999914e+00;-2.3594270798e+01;
5.3479999914e+00;-2.2626094892e+01;
5.3519999913e+00;-2.1421788149e+01;
5.3559999913e+00;-1.9693120580e+01;
5.3599999915e+00;-1.7773527046e+01;
5.3639999914e+00;-1.6968968078e+01;
5.3679999914e+00;-1.8033417800e+01;
5.3719999914e+00;-1.9752296408e+01;
5.3759999913e+00;-2.0227775437e+01;
5.3799999913e+00;-1.9222320340e+01;
5.3839999912e+00;-1.8123002937e+01;
5.3879999912e+00;-1.7867006740e+01;
5.3919999911e+00;-1.7813121849e+01;
5.3959999911e+00;-1.6957286300e+01;
5.3999999913e+00;-1.5476265972e+01;
5.4039999912e+00;-1.4197816627e+01;
5.4079999912e+00;-1.3380782174e+01;
5.4119999912e+00;-1.2907600194e+01;
5.4159999911e+00;-1.2695976652e+01;
5.4199999913e+00;-1.2373351496e+01;
5.4239999913e+00;-1.1510721897e+01;
5.4279999912e+00;-1.0398674142e+01;
5.4319999912e+00;-9.8188659510e+00;
5.4359999911e+00;-9.8930890878e+00;
5.4399999911e+00;-9.9117238354e+00;
5.4439999913e+00;-9.6393305969e+00;
5.4479999912e+00;-9.8183793660e+00;
5.4519999912e+00;-1.0960966956e+01;
5.4559999912e+00;-1.2476377228e+01;
5.4599999911e+00;-1.3033488983e+01;
5.4639999913e+00;-1.1567652211e+01;
5.4679999913e+00;-8.2877405059e+00;
5.4719999912e+00;-4.7475869212e+00;
5.4759999912e+00;-2.9703328399e+00;
5.4799999911e+00;-4.1655107584e+00;
5.4839999911e+00;-7.6209443800e+00;
5.4879999913e+00;-1.1022512710e+01;
5.4919999912e+00;-1.2417447241e+01;
5.4959999912e+00;-1.1731109195e+01;
5.4999999912e+00;-1.0009767742e+01;
5.5039999911e+00;-7.8161407755e+00;
5.5079999911e+00;-5.2406438168e+00;
5.5119999910e+00;-3.0354567015e+00;
5.5159999910e+00;-2.5861642437e+00;
5.5199999909e+00;-4.3652940757e+00;
5.5239999909e+00;-7.0857609032e+00;
5.5279999911e+00;-9.0315138592e+00;
5.5319999910e+00;-9.6558434924e+00;
5.5359999910e+00;-9.2694605860e+00;
5.5399999910e+00;-8.1331524930e+00;
5.5439999909e+00;-6.7664494617e+00;
5.5479999911e+00;-6.2542908993e+00;
5.5519999911e+00;-7.2455431567e+00;
5.5559999910e+00;-9.0970835959e+00;
5.5599999910e+00;-1.0611811543e+01;
5.5639999909e+00;-1.1253784740e+01;
5.5679999909e+00;-1.1176821747e+01;
5.5719999911e+00;-1.0367736650e+01;
5.5759999910e+00;-8.5947545835e+00;
5.5799999910e+00;-6.2892353287e+00;
5.5839999910e+00;-4.5011030670e+00;
5.5879999909e+00;-3.7391309248e+00;
5.5919999911e+00;-3.5972801083e+00;
5.5959999911e+00;-3.6578175015e+00;
5.5999999910e+00;-4.0732280332e+00;
5.6039999910e+00;-5.0420207961e+00;
5.6079999909e+00;-6.3964911530e+00;
5.6119999909e+00;-7.9383572461e+00;
5.6159999911e+00;-9.4937546499e+00;
5.6199999910e+00;-1.0320587780e+01;
5.6239999910e+00;-9.4260566386e+00;
5.6279999909e+00;-7.2132094750e+00;
5.6319999909e+00;-5.5224081949e+00;
5.6359999909e+00;-5.2721276228e+00;
5.6399999908e+00;-5.7208905377e+00;
5.6439999908e+00;-6.3068506315e+00;
5.6479999907e+00;-7.2001416841e+00;
5.6519999907e+00;-8.0028284751e+00;
5.6559999909e+00;-7.6684466422e+00;
5.6599999908e+00;-6.0103869858e+00;
5.6639999908e+00;-4.2780993305e+00;
5.6679999908e+00;-3.7800700634e+00;
5.6719999907e+00;-4.4346329128e+00;
5.6759999909e+00;-5.1206611756e+00;
5.6799999909e+00;-5.0481413138e+00;
5.6839999908e+00;-4.1567717306e+00;
5.6879999908e+00;-2.5578730704e+00;
5.6919999907e+00;-4.6047929084e-01;
5.6959999907e+00;1.4669623634e+00;
5.6999999909e+00;2.3822601359e+00;
5.7039999908e+00;2.0906723554e+00;
5.7079999908e+00;1.1235231635e+00;
5.7119999907e+00;-1.0652655046e-01;
5.7159999907e+00;-1.5766032543e+00;
5.7199999909e+00;-2.8587502957e+00;
5.7239999908e+00;-2.9144036651e+00;
5.7279999908e+00;-1.5118003532e+00;
5.7319999908e+00;-9.3675728567e-02;
5.7359999907e+00;-5.8292318499e-02;
5.7399999907e+00;-9.9849722353e-01;
5.7439999909e+00;-1.7097344704e+00;
5.7479999908e+00;-1.8639178251e+00;
5.7519999908e+00;-1.6017145440e+00;
5.7559999907e+00;-5.2942638053e-01;
5.7599999907e+00;1.5475957280e+00;
5.7639999907e+00;3.5229954328e+00;
5.7679999906e+00;3.8753125206e+00;
5.7719999906e+00;2.3995805815e+00;
5.7759999905e+00;1.9581626610e-01;
5.7799999905e+00;-1.7843778193e+00;
5.7839999907e+00;-3.3667782576e+00;
5.7879999906e+00;-4.5401419320e+00;
5.7919999906e+00;-5.0090520257e+00;
5.7959999905e+00;-4.4352133232e+00;
5.7999999905e+00;-2.9195889567e+00;
5.8039999907e+00;-1.1953822545e+00;
5.8079999906e+00;-1.6586486541e-01;
5.8119999906e+00;-3.1144908565e-01;
5.8159999906e+00;-1.5162760160e+00;
5.8199999905e+00;-3.1155072468e+00;
5.8239999905e+00;-4.1904411974e+00;
5.8279999907e+00;-4.1875894148e+00;
5.8319999906e+00;-3.3299414146e+00;
5.8359999906e+00;-2.2157945799e+00;
5.8399999905e+00;-9.9166570319e-01;
5.8439999905e+00;6.5900490177e-01;
5.8479999907e+00;2.8855179744e+00;
5.8519999906e+00;5.9841191258e+00;
5.8559999906e+00;1.0971077017e+01;
5.8599999906e+00;1.8270037858e+01;
5.8639999905e+00;2.5920044355e+01;
5.8679999905e+00;3.0662457858e+01;
5.8719999907e+00;3.1139611524e+01;
5.8759999906e+00;2.8914877239e+01;
5.8799999906e+00;2.6291802663e+01;
5.8839999905e+00;2.4442741436e+01;
5.8879999905e+00;2.3498961011e+01;
5.8919999904e+00;2.2869372845e+01;
5.8959999904e+00;2.1389598794e+01;
5.8999999904e+00;1.8523333631e+01;
5.9039999903e+00;1.5536369362e+01;
5.9079999903e+00;1.4331174390e+01;
5.9119999905e+00;1.5204728793e+01;
5.9159999904e+00;1.6661307585e+01;
5.9199999904e+00;1.7191303409e+01;
5.9239999903e+00;1.6607323442e+01;
5.9279999903e+00;1.5712483621e+01;
5.9319999905e+00;1.5163433783e+01;
5.9359999904e+00;1.5118606895e+01;
5.9399999904e+00;1.5648181021e+01;
5.9439999904e+00;1.6615097510e+01;
5.9479999903e+00;1.7244120209e+01;
5.9519999903e+00;1.6615369296e+01;
5.9559999905e+00;1.4750161925e+01;
5.9599999904e+00;1.2705380848e+01;
5.9639999904e+00;1.1350173731e+01;
5.9679999903e+00;1.0607836577e+01;
5.9719999903e+00;1.0329730269e+01;
5.9759999905e+00;1.0989659632e+01;
5.9799999904e+00;1.2621465813e+01;
5.9839999904e+00;1.4090759579e+01;
5.9879999903e+00;1.4431136669e+01;
5.9919999903e+00;1.4001138423e+01;
5.9959999903e+00;1.3604152871e+01;
5.9999999905e+00;1.3307231098e+01;
6.0039999904e+00;1.2777378285e+01;
6.0079999904e+00;1.2086179752e+01;
6.0119999903e+00;1.1501927727e+01;
6.0159999903e+00;1.1055662053e+01;
6.0199999902e+00;1.0855654237e+01;
6.0239999902e+00;1.1373635559e+01;
6.0279999902e+00;1.2974906893e+01;
6.0319999901e+00;1.5271729678e+01;
6.0359999901e+00;1.7349633623e+01;
6.0399999903e+00;1.8651344632e+01;
6.0439999902e+00;1.9038199187e+01;
6.0479999902e+00;1.8256127488e+01;
6.0519999901e+00;1.6342853458e+01;
6.0559999901e+00;1.4070930091e+01;
6.0599999903e+00;1.1822883162e+01;
6.0639999902e+00;8.8857439099e+00;
6.0679999902e+00;5.1911354897e+00;
6.0719999901e+00;2.6216385463e+00;
6.0759999901e+00;3.1738890402e+00;
6.0799999901e+00;6.5862325868e+00;
6.0839999903e+00;1.0735451570e+01;
6.0879999902e+00;1.3786619658e+01;
6.0919999902e+00;1.5072882613e+01;
6.0959999901e+00;1.4455356838e+01;
6.0999999901e+00;1.2184555406e+01;
6.1039999903e+00;9.3708510312e+00;
6.1079999902e+00;7.5423556129e+00;
6.1119999902e+00;7.4376799226e+00;
6.1159999901e+00;8.5608859077e+00;
6.1199999901e+00;1.0048626874e+01;
6.1239999901e+00;1.1635614425e+01;
6.1279999902e+00;1.3351127096e+01;
6.1319999902e+00;1.4693916567e+01;
6.1359999902e+00;1.5053071345e+01;
6.1399999901e+00;1.4872017727e+01;
6.1439999901e+00;1.5314395960e+01;
6.1479999900e+00;1.6551137652e+01;
6.1519999900e+00;1.7453978768e+01;
6.1559999899e+00;1.7262702740e+01;
6.1599999899e+00;1.6482078626e+01;
6.1639999899e+00;1.6030988109e+01;
6.1679999901e+00;1.6548765215e+01;
6.1719999900e+00;1.8483618705e+01;
6.1759999900e+00;2.1772154524e+01;
6.1799999899e+00;2.5144250420e+01;
6.1839999899e+00;2.6680237811e+01;
6.1879999901e+00;2.5660454766e+01;
6.1919999900e+00;2.3202998830e+01;
6.1959999900e+00;2.0699379308e+01;
6.1999999899e+00;1.8492953382e+01;
6.2039999899e+00;1.6706262911e+01;
6.2079999899e+00;1.6365910970e+01;
6.2119999900e+00;1.8100689461e+01;
6.2159999900e+00;1.9843429483e+01;
6.2199999900e+00;1.7648060740e+01;
6.2239999899e+00;9.5536634258e+00;
6.2279999899e+00;-2.3476174867e+00;
6.2319999901e+00;-1.3725786786e+01;
6.2359999900e+00;-2.0601204148e+01;
6.2399999900e+00;-2.0933150392e+01;
6.2439999899e+00;-1.6020289457e+01;
6.2479999899e+00;-1.0099458751e+01;
6.2519999899e+00;-6.9148113095e+00;
6.2559999900e+00;-6.8543178161e+00;
6.2599999900e+00;-7.9262407492e+00;
6.2639999900e+00;-8.6054725485e+00;
6.2679999899e+00;-8.8733646618e+00;
6.2719999899e+00;-9.1965989810e+00;
6.2759999898e+00;-9.6899886443e+00;
6.2799999898e+00;-1.0233015899e+01;
6.2839999897e+00;-1.0563912068e+01;
6.2879999897e+00;-1.0066826474e+01;
6.2919999897e+00;-8.2122803711e+00;
6.2959999898e+00;-5.4236514160e+00;
6.2999999898e+00;-2.8104571661e+00;
6.3039999898e+00;-1.0984551749e+00;
6.3079999897e+00;-3.8940694579e-01;
6.3119999897e+00;-7.9963410393e-01;
6.3159999899e+00;-2.6124117314e+00;
6.3199999898e+00;-5.3423304584e+00;
6.3239999898e+00;-7.2065166764e+00;
6.3279999897e+00;-6.5793156499e+00;
6.3319999897e+00;-4.0016692963e+00;
6.3359999896e+00;-1.7304154652e+00;
6.3399999898e+00;-1.2026877017e+00;
6.3439999898e+00;-1.9713864325e+00;
6.3479999898e+00;-3.0242705710e+00;
6.3519999897e+00;-3.8072857807e+00;
6.3559999897e+00;-3.8382318695e+00;
6.3599999899e+00;-2.7608557807e+00;
6.3639999898e+00;-1.0496199566e+00;
6.3679999898e+00;3.3976366580e-01;
6.3719999897e+00;9.5503758424e-01;
6.3759999897e+00;9.3932707424e-01;
6.3799999896e+00;3.7295237952e-01;
6.3839999898e+00;-8.9565788713e-01;
6.3879999898e+00;-2.6734966755e+00;
6.3919999897e+00;-4.2289629381e+00;
6.3959999897e+00;-5.0655885642e+00;
6.3999999897e+00;-5.5091125919e+00;
6.4039999896e+00;-6.0715288236e+00;
6.4079999896e+00;-6.7244979365e+00;
6.4119999895e+00;-7.1851193579e+00;
6.4159999895e+00;-7.2785224046e+00;
6.4199999894e+00;-6.5022671215e+00;
6.4239999896e+00;-3.8443882747e+00;
6.4279999896e+00;8.7590523221e-01;
6.4319999896e+00;5.7344196064e+00;
6.4359999895e+00;8.0063724279e+00;
6.4399999895e+00;6.8463695172e+00;
6.4439999897e+00;3.8442690264e+00;
6.4479999896e+00;9.9966783149e-01;
6.4519999896e+00;-9.1483445073e-01;
6.4559999895e+00;-2.0765464502e+00;
6.4599999895e+00;-2.8301556816e+00;
6.4639999894e+00;-3.4907461962e+00;
6.4679999896e+00;-4.2316899626e+00;
6.4719999896e+00;-4.7116758554e+00;
6.4759999895e+00;-4.3133869893e+00;
6.4799999895e+00;-3.1452827085e+00;
6.4839999895e+00;-2.1024751704e+00;
6.4879999897e+00;-1.6556881273e+00;
6.4919999896e+00;-1.3595905131e+00;
6.4959999896e+00;-8.8253426540e-01;
6.4999999895e+00;-7.7874889117e-01;
6.5039999895e+00;-1.4837041187e+00;
6.5079999894e+00;-2.2315590246e+00;
6.5119999896e+00;-2.0146388733e+00;
6.5159999896e+00;-9.4784472452e-01;
6.5199999895e+00;2.8123262938e-01;
6.5239999895e+00;1.5356038050e+00;
6.5279999895e+00;2.8588460825e+00;
6.5319999894e+00;3.7512720094e+00;
6.5359999894e+00;3.7319634834e+00;
6.5399999893e+00;3.1371089360e+00;
6.5439999893e+00;2.7602474572e+00;
6.5479999892e+00;2.9211231259e+00;
6.5519999894e+00;3.1421101922e+00;
6.5559999894e+00;2.7093197867e+00;
6.5599999893e+00;1.3206886021e+00;
6.5639999893e+00;-9.2422302958e-01;
6.5679999893e+00;-3.5413467471e+00;
6.5719999894e+00;-5.2904281076e+00;
6.5759999894e+00;-4.6817970595e+00;
6.5799999894e+00;-1.5994240789e+00;
6.5839999893e+00;2.3051718786e+00;
6.5879999893e+00;5.4078732884e+00;
6.5919999892e+00;7.3321945243e+00;
6.5959999894e+00;8.0521457440e+00;
6.5999999894e+00;7.0970726189e+00;
6.6039999893e+00;4.4821901397e+00;
6.6079999893e+00;1.6569374825e+00;
6.6119999893e+00;3.0370867008e-01;
6.6159999894e+00;5.6042005756e-01;
6.6199999894e+00;1.5734367913e+00;
6.6239999894e+00;3.0311663734e+00;
6.6279999893e+00;4.8414398369e+00;
6.6319999893e+00;6.2122445681e+00;
6.6359999892e+00;6.2968269326e+00;
6.6399999894e+00;5.1144964919e+00;
6.6439999894e+00;3.3345002766e+00;
6.6479999893e+00;1.7228483685e+00;
6.6519999893e+00;1.0335366813e+00;
6.6559999892e+00;2.0233758654e+00;
6.6599999892e+00;4.7559145720e+00;
6.6639999892e+00;7.7748432992e+00;
6.6679999891e+00;9.1559496145e+00;
6.6719999891e+00;8.6697839695e+00;
6.6759999890e+00;7.6706323677e+00;
6.6799999892e+00;6.9504709731e+00;
6.6839999892e+00;6.0214664974e+00;
6.6879999891e+00;4.3664171578e+00;
6.6919999891e+00;2.4821430972e+00;
6.6959999891e+00;1.4588975906e+00;
6.6999999892e+00;1.8382684110e+00;
6.7039999892e+00;3.3259130352e+00;
6.7079999892e+00;5.3129698463e+00;
6.7119999891e+00;7.1461540033e+00;
6.7159999891e+00;8.1844546184e+00;
6.7199999890e+00;8.0114687443e+00;
6.7239999892e+00;6.7530474650e+00;
6.7279999892e+00;5.0294947296e+00;
6.7319999891e+00;3.2949049148e+00;
6.7359999891e+00;1.7325439150e+00;
6.7399999890e+00;9.9237663165e-01;
6.7439999892e+00;1.8522313768e+00;
6.7479999892e+00;3.8814377938e+00;
6.7519999892e+00;5.6404857557e+00;
6.7559999891e+00;6.3836309847e+00;
6.7599999891e+00;6.6068378762e+00;
6.7639999890e+00;6.8682224201e+00;
6.7679999892e+00;7.0244250665e+00;
6.7719999892e+00;6.8053434040e+00;
6.7759999891e+00;6.3118486207e+00;
6.7799999891e+00;5.7591932957e+00;
6.7839999890e+00;5.2411632609e+00;
6.7879999890e+00;4.8959376370e+00;
6.7919999890e+00;5.0339725016e+00;
6.7959999889e+00;5.7029209539e+00;
6.7999999889e+00;6.3402543848e+00;
6.8039999888e+00;6.3861042523e+00;
6.8079999890e+00;5.8752017068e+00;
6.8119999890e+00;5.0003075328e+00;
6.8159999889e+00;3.4999472930e+00;
6.8199999889e+00;1.0500052275e+00;
6.8239999888e+00;-1.7233251488e+00;
6.8279999890e+00;-3.4352949958e+00;
6.8319999890e+00;-3.5022695600e+00;
6.8359999890e+00;-2.4745701911e+00;
6.8399999889e+00;-7.4765243442e-01;
6.8439999889e+00;1.3400595783e+00;
6.8479999888e+00;2.3864032866e+00;
6.8519999890e+00;1.3663084524e+00;
6.8559999890e+00;2.3285043595e-01;
6.8599999889e+00;2.9135348482e+00;
6.8639999889e+00;1.1367763347e+01;
6.8679999888e+00;2.3993146231e+01;
6.8719999890e+00;3.8058103299e+01;
6.8759999890e+00;5.2198113489e+01;
6.8799999889e+00;6.5713503511e+01;
6.8839999889e+00;7.6714518087e+01;
6.8879999889e+00;8.2859155302e+01;
6.8919999888e+00;8.3869674282e+01;
6.8959999890e+00;8.1712245593e+01;
6.8999999890e+00;7.8375183853e+01;
6.9039999889e+00;7.4939265452e+01;
6.9079999889e+00;7.2296403785e+01;
6.9119999888e+00;7.1036822395e+01;
6.9159999888e+00;7.0605611481e+01;
6.9199999887e+00;6.9892826826e+01;
6.9239999887e+00;6.8949547797e+01;
6.9279999887e+00;6.8985837399e+01;
6.9319999886e+00;7.0436504963e+01;
6.9359999888e+00;7.2184336501e+01;
6.9399999888e+00;7.3018532921e+01;
6.9439999887e+00;7.2886527301e+01;
6.9479999887e+00;7.2237132238e+01;
6.9519999886e+00;7.1125556541e+01;
6.9559999888e+00;6.9728670275e+01;
6.9599999888e+00;6.8697574154e+01;
6.9639999887e+00;6.8217601331e+01;
6.9679999887e+00;6.7692873014e+01;
6.9719999887e+00;6.6845517841e+01;
6.9759999886e+00;6.6222455785e+01;
6.9799999888e+00;6.6148078216e+01;
6.9839999888e+00;6.5925108215e+01;
6.9879999887e+00;6.4759927361e+01;
6.9919999887e+00;6.2968116129e+01;
6.9959999886e+00;6.1434663737e+01;
6.9999999888e+00;6.0320789639e+01;
7.0039999888e+00;5.9401848430e+01;
7.0079999887e+00;5.9248451168e+01;
7.0119999887e+00;6.0681854073e+01;
7.0159999887e+00;6.3236376212e+01;
7.0199999886e+00;6.5344080940e+01;
7.0239999888e+00;6.5941059038e+01;
7.0279999888e+00;6.4976851260e+01;
7.0319999887e+00;6.2675504263e+01;
7.0359999887e+00;5.9543946769e+01;
7.0399999886e+00;5.7244304508e+01;
7.0439999886e+00;5.7939916825e+01;
7.0479999885e+00;6.1318482642e+01;
7.0519999885e+00;6.3128286705e+01;
7.0559999885e+00;5.8646038606e+01;
7.0599999884e+00;4.7237410013e+01;
7.0639999886e+00;3.2139690667e+01;
7.0679999886e+00;1.6923182727e+01;
7.0719999885e+00;3.9569381577e+00;
7.0759999885e+00;-4.7946059569e+00;
7.0799999884e+00;-8.2006536573e+00;
7.0839999886e+00;-7.5344574349e+00;
7.0879999886e+00;-5.6774945557e+00;
7.0919999885e+00;-4.4432295053e+00;
7.0959999885e+00;-4.0429656328e+00;
7.0999999885e+00;-4.5924441489e+00;
7.1039999884e+00;-6.2112959203e+00;
7.1079999886e+00;-8.0765052476e+00;
7.1119999886e+00;-9.0505640418e+00;
7.1159999885e+00;-9.0052536687e+00;
7.1199999885e+00;-8.6036855019e+00;
7.1239999884e+00;-8.1436516774e+00;
7.1279999886e+00;-7.4800363279e+00;
7.1319999886e+00;-7.0174413945e+00;
7.1359999885e+00;-7.7552512670e+00;
7.1399999885e+00;-9.7318619088e+00;
7.1439999884e+00;-1.1282108018e+01;
7.1479999884e+00;-1.0905436391e+01;
7.1519999886e+00;-9.1412882565e+00;
7.1559999886e+00;-7.5682578048e+00;
7.1599999885e+00;-6.7990307439e+00;
7.1639999885e+00;-6.4050577949e+00;
7.1679999884e+00;-6.0966078109e+00;
7.1719999884e+00;-6.1166995278e+00;
7.1759999883e+00;-6.7959349986e+00;
7.1799999883e+00;-8.2179642314e+00;
7.1839999883e+00;-1.0128612568e+01;
7.1879999882e+00;-1.1811596664e+01;
7.1919999884e+00;-1.2264144731e+01;
7.1959999884e+00;-1.1100904347e+01;
7.1999999883e+00;-9.0664239040e+00;
7.2039999883e+00;-6.9928560149e+00;
7.2079999882e+00;-4.7657174924e+00;
7.2119999884e+00;-2.0971442220e+00;
7.2159999884e+00;2.7136722092e-01;
7.2199999883e+00;1.0579233787e+00;
7.2239999883e+00;8.3763466093e-02;
7.2279999882e+00;-1.3864347771e+00;
7.2319999882e+00;-2.4061950624e+00;
7.2359999884e+00;-3.1997606653e+00;
7.2399999883e+00;-3.7048083871e+00;
7.2439999883e+00;-3.2062757353e+00;
7.2479999883e+00;-1.8568689077e+00;
7.2519999882e+00;-1.0607123717e+00;
7.2559999884e+00;-2.2492996978e+00;
7.2599999884e+00;-5.6165079540e+00;
7.2639999883e+00;-9.6444575665e+00;
7.2679999883e+00;-1.1811171113e+01;
7.2719999882e+00;-1.0115234767e+01;
7.2759999882e+00;-4.5797713145e+00;
7.2799999884e+00;2.0415392846e+00;
7.2839999883e+00;5.4975217843e+00;
7.2879999883e+00;2.9322158206e+00;
7.2919999883e+00;-4.9387529952e+00;
7.2959999882e+00;-1.3977827391e+01;
7.2999999882e+00;-1.9077112274e+01;
7.3039999881e+00;-1.7501598871e+01;
7.3079999881e+00;-1.0558247006e+01;
7.3119999880e+00;-2.4897278369e+00;
7.3159999880e+00;2.2274409806e+00;
7.3199999882e+00;1.7274486749e+00;
7.3239999881e+00;-1.9073595463e+00;
7.3279999881e+00;-4.7335768685e+00;
7.3319999881e+00;-4.9932518053e+00;
7.3359999880e+00;-4.1367364531e+00;
7.3399999882e+00;-3.8420478087e+00;
7.3439999882e+00;-3.9305174070e+00;
7.3479999881e+00;-3.7510398500e+00;
7.3519999881e+00;-3.7492544655e+00;
7.3559999880e+00;-4.5607256350e+00;
7.3599999880e+00;-5.6067823398e+00;
7.3639999882e+00;-5.6265227307e+00;
7.3679999881e+00;-4.3957905666e+00;
7.3719999881e+00;-3.0170864970e+00;
7.3759999881e+00;-2.4037159935e+00;
7.3799999880e+00;-2.7439585666e+00;
7.3839999882e+00;-4.2916880129e+00;
7.3879999882e+00;-7.0202585699e+00;
7.3919999881e+00;-9.8159906796e+00;
7.3959999881e+00;-1.1403922811e+01;
7.3999999880e+00;-1.1782524566e+01;
7.4039999880e+00;-1.1868902235e+01;
7.4079999882e+00;-1.2136161806e+01;
7.4119999881e+00;-1.2385304660e+01;
7.4159999881e+00;-1.2536219912e+01;
7.4199999881e+00;-1.2811548199e+01;
7.4239999880e+00;-1.3128434157e+01;
7.4279999880e+00;-1.2981609309e+01;
7.4319999879e+00;-1.2184534605e+01;
7.4359999879e+00;-1.1281459025e+01;
7.4399999878e+00;-1.0758835770e+01;
7.4439999878e+00;-1.0186455021e+01;
7.4479999880e+00;-8.8961177983e+00;
7.4519999879e+00;-7.1970730157e+00;
7.4559999879e+00;-6.0300956903e+00;
7.4599999879e+00;-5.8160993674e+00;
7.4639999878e+00;-6.4620619001e+00;
7.4679999880e+00;-7.8378770830e+00;
7.4719999880e+00;-9.4051915491e+00;
7.4759999879e+00;-1.0106547541e+01;
7.4799999879e+00;-9.4436185847e+00;
7.4839999878e+00;-8.1895134986e+00;
7.4879999878e+00;-7.4475123939e+00;
7.4919999880e+00;-7.5053785979e+00;
7.4959999879e+00;-8.1669023105e+00;
7.4999999879e+00;-9.3928568910e+00;
7.5039999878e+00;-1.0888503623e+01;
7.5079999878e+00;-1.1807254716e+01;
7.5119999880e+00;-1.1561867922e+01;
7.5159999880e+00;-1.0577771196e+01;
7.5199999879e+00;-9.8136873563e+00;
7.5239999879e+00;-9.8243481081e+00;
7.5279999878e+00;-1.0502439537e+01;
7.5319999878e+00;-1.1323237252e+01;
7.5359999880e+00;-1.1568003218e+01;
7.5399999879e+00;-1.0546445500e+01;
7.5439999879e+00;-8.1802374224e+00;
7.5479999878e+00;-5.6089459356e+00;
7.5519999878e+00;-4.5109861783e+00;
7.5559999878e+00;-5.3466284655e+00;
7.5599999877e+00;-6.9099477150e+00;
7.5639999877e+00;-7.9230063210e+00;
7.5679999876e+00;-8.2800531810e+00;
7.5719999876e+00;-8.2502215038e+00;
7.5759999878e+00;-7.4359689672e+00;
7.5799999877e+00;-5.5052177491e+00;
7.5839999877e+00;-3.2758049208e+00;
7.5879999876e+00;-2.0966409287e+00;
7.5919999876e+00;-2.3133229281e+00;
7.5959999878e+00;-3.1156793734e+00;
7.5999999878e+00;-3.9866988050e+00;
7.6039999877e+00;-5.2325973698e+00;
7.6079999877e+00;-6.7350275481e+00;
7.6119999876e+00;-7.4523587199e+00;
7.6159999876e+00;-6.9145235489e+00;
7.6199999878e+00;-6.0919144432e+00;
7.6239999877e+00;-5.7702922284e+00;
7.6279999877e+00;-5.2826996748e+00;
7.6319999876e+00;-4.0505574674e+00;
7.6359999876e+00;-2.9863921822e+00;
7.6399999878e+00;-3.2243466999e+00;
7.6439999877e+00;-4.7346595419e+00;
7.6479999877e+00;-6.8174288256e+00;
7.6519999877e+00;-9.0367910845e+00;
7.6559999876e+00;-1.1219992673e+01;
7.6599999876e+00;-1.2800772500e+01;
7.6639999878e+00;-1.3027690512e+01;
7.6679999877e+00;-1.1990895724e+01;
7.6719999877e+00;-1.0461248519e+01;
7.6759999876e+00;-9.0283814234e+00;
7.6799999876e+00;-8.0983451377e+00;
7.6839999876e+00;-7.9921730430e+00;
7.6879999875e+00;-8.6243349237e+00;
7.6919999875e+00;-9.3495710187e+00;
7.6959999874e+00;-9.3869631482e+00;
7.6999999874e+00;-8.6693611103e+00;
7.7039999876e+00;-7.8442120654e+00;
7.7079999875e+00;-7.1752818342e+00;
7.7119999875e+00;-6.1983765074e+00;
7.7159999874e+00;-4.7302478163e+00;
7.7199999874e+00;-3.4249901423e+00;
7.7239999876e+00;-2.7071549133e+00;
7.7279999875e+00;-1.8973602672e+00;
7.7319999875e+00;-3.7626664870e-01;
7.7359999875e+00;1.0975667085e+00;
7.7399999874e+00;1.2253450677e+00;
7.7439999874e+00;-1.6073511523e-01;
7.7479999876e+00;-2.0655882980e+00;
7.7519999875e+00;-3.6788324160e+00;
7.7559999875e+00;-4.7861673170e+00;
7.7599999874e+00;-4.9127367631e+00;
7.7639999874e+00;-3.4304236601e+00;
7.7679999876e+00;-9.3700738810e-01;
7.7719999875e+00;6.2861933571e-01;
7.7759999875e+00;-8.6099303036e-02;
7.7799999875e+00;-2.4204645101e+00;
7.7839999874e+00;-4.6708489620e+00;
7.7879999874e+00;-5.7537909074e+00;
7.7919999876e+00;-5.3980298457e+00;
7.7959999875e+00;-3.6921426733e+00;
7.7999999875e+00;-1.1236498301e+00;
7.8039999874e+00;1.5996147511e+00;
7.8079999874e+00;3.8297612945e+00;
7.8119999873e+00;4.4959084946e+00;
7.8159999873e+00;1.9707889802e+00;
7.8199999873e+00;-4.4700546614e+00;
7.8239999872e+00;-1.2977467950e+01;
7.8279999872e+00;-1.9708358118e+01;
7.8319999874e+00;-2.1864191734e+01;
7.8359999873e+00;-2.0114786889e+01;
7.8399999873e+00;-1.7489328867e+01;
7.8439999872e+00;-1.6131024519e+01;
7.8479999872e+00;-1.5980377518e+01;
7.8519999874e+00;-1.6188710294e+01;
7.8559999873e+00;-1.6290502052e+01;
7.8599999873e+00;-1.5914482813e+01;
7.8639999873e+00;-1.4805340065e+01;
7.8679999872e+00;-1.3437945168e+01;
7.8719999872e+00;-1.2426211465e+01;
7.8759999874e+00;-1.1424475898e+01;
7.8799999873e+00;-9.8630668537e+00;
7.8839999873e+00;-8.5005397443e+00;
7.8879999872e+00;-8.9073101099e+00;
7.8919999872e+00;-1.1314978911e+01;
7.8959999874e+00;-1.4205597529e+01;
7.8999999873e+00;-1.6239738743e+01;
7.9039999873e+00;-1.7264776823e+01;
7.9079999872e+00;-1.7226199509e+01;
7.9119999872e+00;-1.5725617862e+01;
7.9159999872e+00;-1.3241505761e+01;
7.9199999874e+00;-1.1225260093e+01;
7.9239999873e+00;-1.0256258424e+01;
7.9279999873e+00;-9.4462296879e+00;
7.9319999872e+00;-8.2937075807e+00;
7.9359999872e+00;-7.8294002255e+00;
7.9399999871e+00;-9.0771133839e+00;
7.9439999871e+00;-1.1283648769e+01;
7.9479999871e+00;-1.2644831839e+01;
7.9519999870e+00;-1.2397486175e+01;
7.9559999870e+00;-1.1221976134e+01;
7.9599999872e+00;-9.9063285481e+00;
7.9639999871e+00;-8.8684717452e+00;
7.9679999871e+00;-8.5925340576e+00;
7.9719999870e+00;-9.1362237674e+00;
7.9759999870e+00;-9.4973913213e+00;
7.9799999872e+00;-8.5712834238e+00;
7.9839999871e+00;-6.7140792237e+00;
7.9879999871e+00;-5.5389403212e+00;
7.9919999870e+00;-5.8522176436e+00;
7.9959999870e+00;-6.7525418224e+00;
7.9999999870e+00;-7.2265467475e+00;
8.0039999872e+00;-7.3554307555e+00;
8.0079999871e+00;-7.4979240922e+00;
8.0119999871e+00;-7.5050535476e+00;
8.0159999870e+00;-7.1300877823e+00;
8.0199999870e+00;-6.4772236848e+00;
8.0239999872e+00;-5.9044264839e+00;
8.0279999871e+00;-5.6915911537e+00;
8.0319999871e+00;-5.8417423735e+00;
8.0359999870e+00;-6.3930243030e+00;
8.0399999870e+00;-7.4875261676e+00;
8.0439999870e+00;-8.7344442100e+00;
8.0479999871e+00;-9.3848273836e+00;
8.0519999871e+00;-9.5636179312e+00;
8.0559999871e+00;-1.0355353769e+01;
8.0599999870e+00;-1.2107590793e+01;
8.0639999870e+00;-1.3614843762e+01;
8.0679999869e+00;-1.3686480292e+01;
8.0719999869e+00;-1.2475756561e+01;
8.0759999868e+00;-1.0814027522e+01;
8.0799999868e+00;-9.4493209077e+00;
8.0839999868e+00;-9.1712171830e+00;
8.0879999870e+00;-1.0380507040e+01;
8.0919999869e+00;-1.2156140220e+01;
8.0959999869e+00;-1.2933526315e+01;
8.0999999868e+00;-1.2409668649e+01;
8.1039999868e+00;-1.1757528643e+01;
8.1079999870e+00;-1.1914214526e+01;
8.1119999869e+00;-1.2491642910e+01;
8.1159999869e+00;-1.2568313487e+01;
8.1199999868e+00;-1.1945223043e+01;
8.1239999868e+00;-1.0976497369e+01;
8.1279999868e+00;-9.6300703767e+00;
8.1319999869e+00;-7.7209125672e+00;
8.1359999869e+00;-5.9285789661e+00;
8.1399999869e+00;-5.5429284444e+00;
8.1439999868e+00;-6.8370194641e+00;
8.1479999868e+00;-8.5914145353e+00;
8.1519999870e+00;-9.5827938267e+00;
8.1559999869e+00;-9.4416616189e+00;
8.1599999869e+00;-8.1642683273e+00;
8.1639999868e+00;-6.2591728971e+00;
8.1679999868e+00;-5.0577927153e+00;
8.1719999867e+00;-5.5068235759e+00;
8.1759999869e+00;-6.8025731789e+00;
8.1799999869e+00;-7.1170756466e+00;
8.1839999869e+00;-5.7258148992e+00;
8.1879999868e+00;-3.7173728836e+00;
8.1919999868e+00;-2.4310582300e+00;
8.1959999867e+00;-2.1407896160e+00;
8.1999999867e+00;-2.6098742919e+00;
8.2039999866e+00;-3.8600911542e+00;
8.2079999866e+00;-5.7956974126e+00;
8.2119999866e+00;-7.8351051321e+00;
8.2159999867e+00;-9.5593264074e+00;
8.2199999867e+00;-1.1026953354e+01;
8.2239999867e+00;-1.1903802709e+01;
8.2279999866e+00;-1.1308262932e+01;
8.2319999866e+00;-9.3204374520e+00;
8.2359999868e+00;-7.7296631293e+00;
8.2399999867e+00;-8.2183678087e+00;
8.2439999867e+00;-1.0414927370e+01;
8.2479999866e+00;-1.2701326755e+01;
8.2519999866e+00;-1.4248147277e+01;
8.2559999865e+00;-1.5237524303e+01;
8.2599999867e+00;-1.5609400255e+01;
8.2639999867e+00;-1.4899309198e+01;
8.2679999867e+00;-1.3526519366e+01;
8.2719999866e+00;-1.3029192942e+01;
8.2759999866e+00;-1.4301299109e+01;
8.2799999868e+00;-1.6410309045e+01;
8.2839999867e+00;-1.7765356674e+01;
8.2879999867e+00;-1.7736229517e+01;
8.2919999866e+00;-1.6754413200e+01;
8.2959999866e+00;-1.5666301788e+01;
8.2999999865e+00;-1.5310920867e+01;
8.3039999867e+00;-1.5982108803e+01;
8.3079999867e+00;-1.7111222064e+01;
8.3119999866e+00;-1.7892575844e+01;
8.3159999866e+00;-1.7905379138e+01;
8.3199999866e+00;-1.6710690907e+01;
8.3239999865e+00;-1.3462075748e+01;
8.3279999865e+00;-7.7237949662e+00;
8.3319999864e+00;-6.3590333622e-01;
8.3359999864e+00;5.3447073087e+00;
8.3399999863e+00;8.3281144539e+00;
8.3439999865e+00;8.5433770696e+00;
8.3479999865e+00;7.6573834797e+00;
8.3519999865e+00;6.7161211531e+00;
8.3559999864e+00;5.6001898376e+00;
8.3599999864e+00;4.3947911808e+00;
8.3639999866e+00;3.8561469829e+00;
8.3679999865e+00;4.1932525757e+00;
8.3719999865e+00;4.6555089002e+00;
8.3759999864e+00;4.9414602825e+00;
8.3799999864e+00;5.9036051587e+00;
8.3839999863e+00;8.0198816850e+00;
8.3879999865e+00;1.0397802423e+01;
8.3919999865e+00;1.2080986541e+01;
8.3959999864e+00;1.2932914973e+01;
8.3999999864e+00;1.2789396667e+01;
8.4039999864e+00;1.1371345688e+01;
8.4079999865e+00;9.3789194491e+00;
8.4119999865e+00;8.2876757522e+00;
8.4159999865e+00;8.6835737777e+00;
8.4199999864e+00;9.4798343189e+00;
8.4239999864e+00;9.1273640607e+00;
8.4279999863e+00;7.3977368473e+00;
8.4319999865e+00;5.5126457999e+00;
8.4359999865e+00;4.5216356230e+00;
8.4399999864e+00;4.2948432667e+00;
8.4439999864e+00;4.3790190471e+00;
8.4479999864e+00;4.8077101748e+00;
8.4519999863e+00;5.5103340693e+00;
8.4559999863e+00;6.0671314520e+00;
8.4599999862e+00;6.5941987175e+00;
8.4639999862e+00;7.6502965823e+00;
8.4679999861e+00;8.7198839340e+00;
8.4719999863e+00;8.1883287034e+00;
8.4759999863e+00;5.7473616938e+00;
8.4799999862e+00;3.3223802338e+00;
8.4839999862e+00;2.5026809375e+00;
8.4879999862e+00;2.6448162415e+00;
8.4919999863e+00;2.4966393285e+00;
8.4959999863e+00;2.2204285534e+00;
8.4999999863e+00;2.7936018478e+00;
8.5039999862e+00;4.4185473197e+00;
8.5079999862e+00;6.5371929127e+00;
8.5119999861e+00;8.4730216215e+00;
8.5159999863e+00;8.9527713627e+00;
8.5199999863e+00;6.1967568377e+00;
8.5239999862e+00;2.6665548328e-02;
8.5279999862e+00;-6.8004488595e+00;
8.5319999862e+00;-1.0685249739e+01;
8.5359999863e+00;-1.0580637859e+01;
8.5399999863e+00;-8.4482885088e+00;
8.5439999863e+00;-6.3804520377e+00;
8.5479999862e+00;-4.7036266327e+00;
8.5519999862e+00;-3.2227941150e+00;
8.5559999861e+00;-2.5051659574e+00;
8.5599999863e+00;-3.1654077324e+00;
8.5639999863e+00;-5.0489804479e+00;
8.5679999862e+00;-7.6950725508e+00;
8.5719999862e+00;-1.0860192743e+01;
8.5759999861e+00;-1.3916808854e+01;
8.5799999861e+00;-1.5460498860e+01;
8.5839999861e+00;-1.4755903721e+01;
8.5879999860e+00;-1.3015756687e+01;
8.5919999860e+00;-1.1856009860e+01;
8.5959999859e+00;-1.1163423797e+01;
8.5999999861e+00;-9.8862019733e+00;
8.6039999861e+00;-7.9797060129e+00;
8.6079999860e+00;-6.1299789990e+00;
8.6119999860e+00;-4.5713710239e+00;
8.6159999860e+00;-3.5372039960e+00;
8.6199999861e+00;-3.9332772327e+00;
8.6239999861e+00;-6.0755949036e+00;
8.6279999861e+00;-8.3700100280e+00;
8.6319999860e+00;-8.7988786532e+00;
8.6359999860e+00;-7.3242469628e+00;
8.6399999859e+00;-5.4485402930e+00;
8.6439999861e+00;-3.8865149952e+00;
8.6479999861e+00;-2.2345588629e+00;
8.6519999860e+00;-7.7600604866e-01;
8.6559999860e+00;-6.1898978043e-01;
8.6599999859e+00;-1.5550132490e+00;
8.6639999861e+00;-1.8297361230e+00;
8.6679999861e+00;-8.1346629118e-01;
8.6719999861e+00;1.6816622112e-02;
8.6759999860e+00;-4.2803173768e-01;
8.6799999860e+00;-1.1754896488e+00;
8.6839999859e+00;-9.1635520640e-01;
8.6879999861e+00;7.8633277910e-02;
8.6919999861e+00;6.6203711892e-01;
8.6959999860e+00;4.0395410021e-01;
8.6999999860e+00;-3.0249250727e-01;
8.7039999859e+00;-1.0813154795e+00;
8.7079999859e+00;-1.7664547870e+00;
8.7119999859e+00;-2.0786449153e+00;
8.7159999858e+00;-1.7568572613e+00;
8.7199999858e+00;-8.6496550275e-01;
8.7239999857e+00;4.3682937650e-01;
8.7279999859e+00;2.2214045563e+00;
8.7319999859e+00;4.3795578614e+00;
8.7359999858e+00;5.7758589670e+00;
8.7399999858e+00;4.7409280970e+00;
8.7439999857e+00;1.3591719032e+00;
8.7479999859e+00;-1.7773871692e+00;
8.7519999859e+00;-2.4167618923e+00;
8.7559999858e+00;-9.5281856263e-01;
8.7599999858e+00;1.3267720258e+00;
8.7639999858e+00;4.4030341975e+00;
8.7679999857e+00;8.2187686772e+00;
8.7719999859e+00;1.1007258018e+01;
8.7759999859e+00;1.0925507574e+01;
8.7799999858e+00;8.2417809702e+00;
8.7839999858e+00;4.6690437262e+00;
8.7879999857e+00;1.4470844505e+00;
8.7919999859e+00;-1.1344808644e+00;
8.7959999859e+00;-3.0052317388e+00;
8.7999999858e+00;-4.0223997199e+00;
8.8039999858e+00;-4.3418206234e+00;
8.8079999858e+00;-4.2144763994e+00;
8.8119999857e+00;-3.3109490727e+00;
8.8159999859e+00;-1.2024677721e+00;
8.8199999859e+00;1.4277050119e+00;
8.8239999858e+00;3.1470182992e+00;
8.8279999858e+00;3.7077103823e+00;
8.8319999857e+00;4.4103215395e+00;
8.8359999857e+00;5.9014103488e+00;
8.8399999856e+00;7.1481410331e+00;
8.8439999856e+00;7.2410003069e+00;
8.8479999856e+00;6.5119777066e+00;
8.8519999855e+00;5.3356443547e+00;
8.8559999857e+00;3.4271044788e+00;
8.8599999857e+00;9.5738851465e-01;
8.8639999856e+00;-7.7691555594e-01;
8.8679999856e+00;-6.1281341861e-01;
8.8719999855e+00;1.0818515712e+00;
8.8759999857e+00;3.0637095533e+00;
8.8799999857e+00;4.6699910851e+00;
8.8839999856e+00;5.7657790016e+00;
8.8879999856e+00;6.0640807403e+00;
8.8919999856e+00;5.4326051289e+00;
8.8959999855e+00;4.3073151641e+00;
8.8999999857e+00;3.1080019580e+00;
8.9039999857e+00;1.7489598246e+00;
8.9079999856e+00;2.0010231645e-01;
8.9119999856e+00;-1.0020867025e+00;
8.9159999855e+00;-1.1166966141e+00;
8.9199999857e+00;9.2375031789e-02;
8.9239999857e+00;2.1436950470e+00;
8.9279999856e+00;4.4823382375e+00;
8.9319999856e+00;6.8302021318e+00;
8.9359999856e+00;8.5032631290e+00;
8.9399999855e+00;8.3765266893e+00;
8.9439999857e+00;6.1447863969e+00;
8.9479999857e+00;2.8622467614e+00;
8.9519999856e+00;-1.6685685457e-01;
8.9559999856e+00;-2.4884111967e+00;
8.9599999855e+00;-4.1046200781e+00;
8.9639999855e+00;-4.6275724176e+00;
8.9679999854e+00;-3.6586329570e+00;
8.9719999854e+00;-1.6597679149e+00;
8.9759999854e+00;2.2403979662e-01;
8.9799999853e+00;1.2027038762e+00;
8.9839999855e+00;1.4634013667e+00;
8.9879999855e+00;1.5500446388e+00;
8.9919999854e+00;1.5415978732e+00;
8.9959999854e+00;1.3874922573e+00;
8.9999999853e+00;1.2566644205e+00;
9.0039999855e+00;1.0627610310e+00;
9.0079999855e+00;6.9920055405e-01;
9.0119999854e+00;8.0301206966e-01;
9.0159999854e+00;2.1217856058e+00;
9.0199999854e+00;4.2083323845e+00;
9.0239999853e+00;5.7049794090e+00;
9.0279999855e+00;5.9364835612e+00;
9.0319999855e+00;5.4442049920e+00;
9.0359999854e+00;4.8339262841e+00;
9.0399999854e+00;4.0645707875e+00;
9.0439999853e+00;3.2055039236e+00;
9.0479999855e+00;2.7286229157e+00;
9.0519999855e+00;2.6431245453e+00;
9.0559999854e+00;2.3576000598e+00;
9.0599999854e+00;1.6769994650e+00;
9.0639999853e+00;1.2582268770e+00;
9.0679999853e+00;1.6512737155e+00;
9.0719999855e+00;2.3742059111e+00;
9.0759999854e+00;2.7146674310e+00;
9.0799999854e+00;2.8970050127e+00;
9.0839999854e+00;3.5038043071e+00;
9.0879999853e+00;4.3517688466e+00;
9.0919999853e+00;4.9028751162e+00;
9.0959999852e+00;5.3530398750e+00;
9.0999999852e+00;6.3425969440e+00;
9.1039999851e+00;7.7215469893e+00;
9.1079999851e+00;8.5413921117e+00;
9.1119999853e+00;8.2565741090e+00;
9.1159999853e+00;7.2944416611e+00;
9.1199999852e+00;6.4574851948e+00;
9.1239999852e+00;5.9985749167e+00;
9.1279999851e+00;5.6785999669e+00;
9.1319999853e+00;5.6657561976e+00;
9.1359999853e+00;6.3104288838e+00;
9.1399999852e+00;7.1377836239e+00;
9.1439999852e+00;7.2896003861e+00;
9.1479999851e+00;6.6299178150e+00;
9.1519999851e+00;5.4383019954e+00;
9.1559999853e+00;3.7487569918e+00;
9.1599999852e+00;1.9129742946e+00;
9.1639999852e+00;8.2956671307e-01;
9.1679999852e+00;6.9362843118e-01;
9.1719999851e+00;5.1170862513e-01;
9.1759999853e+00;-3.9358199900e-01;
9.1799999853e+00;-1.3981891893e+00;
9.1839999852e+00;-1.6527932191e+00;
9.1879999852e+00;-1.0610825329e+00;
9.1919999851e+00;1.8978905003e-01;
9.1959999851e+00;1.9885186130e+00;
9.1999999853e+00;3.7290295843e+00;
9.2039999852e+00;4.0194065458e+00;
9.2079999852e+00;1.7777091721e+00;
9.2119999852e+00;-2.3043673183e+00;
9.2159999851e+00;-6.1157446941e+00;
9.2199999851e+00;-8.0335742279e+00;
9.2239999850e+00;-7.8663932687e+00;
9.2279999850e+00;-6.1082258988e+00;
9.2319999849e+00;-3.3574863796e+00;
9.2359999849e+00;-6.4266125497e-01;
9.2399999851e+00;8.8798998191e-01;
9.2439999850e+00;1.1114907307e+00;
9.2479999850e+00;1.0133534863e+00;
9.2519999850e+00;1.3011898063e+00;
9.2559999849e+00;1.7253039532e+00;
9.2599999851e+00;2.1363885786e+00;
9.2639999851e+00;2.9503894218e+00;
9.2679999850e+00;3.8856030331e+00;
9.2719999850e+00;3.7657732025e+00;
9.2759999849e+00;2.2778848659e+00;
9.2799999849e+00;4.8477417079e-01;
9.2839999851e+00;-7.7798767283e-01;
9.2879999850e+00;-1.8883633966e+00;
9.2919999850e+00;-3.3882979449e+00;
9.2959999850e+00;-4.6580252900e+00;
9.2999999849e+00;-4.6547414850e+00;
9.3039999851e+00;-3.4957555934e+00;
9.3079999851e+00;-1.9867655933e+00;
9.3119999850e+00;-1.5446213889e-01;
9.3159999850e+00;2.3654951992e+00;
9.3199999849e+00;4.9622127000e+00;
9.3239999849e+00;6.3462238719e+00;
9.3279999851e+00;6.0517604500e+00;
9.3319999850e+00;4.8104111201e+00;
9.3359999850e+00;3.3453815619e+00;
9.3399999849e+00;1.5081066848e+00;
9.3439999849e+00;-6.7958394776e-01;
9.3479999849e+00;-1.9976268617e+00;
9.3519999848e+00;-1.4077199184e+00;
9.3559999848e+00;4.2256674101e-01;
9.3599999847e+00;2.2353918800e+00;
9.3639999847e+00;3.7249295281e+00;
9.3679999849e+00;4.9747668094e+00;
9.3719999848e+00;5.3773820422e+00;
9.3759999848e+00;4.0463429100e+00;
9.3799999848e+00;1.1568931921e+00;
9.3839999847e+00;-1.7317264115e+00;
9.3879999849e+00;-3.0403585755e+00;
9.3919999849e+00;-2.3204772907e+00;
9.3959999848e+00;-5.4013737710e-02;
9.3999999848e+00;2.5108095317e+00;
9.4039999847e+00;3.4339987467e+00;
9.4079999847e+00;1.5783290848e+00;
9.4119999849e+00;-1.6546855983e+00;
9.4159999848e+00;-3.2777662167e+00;
9.4199999848e+00;-1.8291983062e+00;
9.4239999847e+00;1.3340910218e+00;
9.4279999847e+00;3.9788792692e+00;
9.4319999849e+00;5.1215184060e+00;
9.4359999849e+00;5.0345034426e+00;
9.4399999848e+00;4.3732780097e+00;
9.4439999848e+00;3.9130342940e+00;
9.4479999847e+00;4.3117189341e+00;
9.4519999847e+00;5.3893194904e+00;
9.4559999849e+00;6.2427197843e+00;
9.4599999848e+00;6.7376160346e+00;
9.4639999848e+00;8.0160171876e+00;
9.4679999847e+00;1.0474515269e+01;
9.4719999847e+00;1.2246194651e+01;
9.4759999847e+00;1.1335146237e+01;
9.4799999846e+00;8.4903089266e+00;
9.4839999846e+00;6.3895909049e+00;
9.4879999845e+00;6.7267651103e+00;
9.4919999845e+00;9.2692687640e+00;
9.4959999847e+00;1.2879080092e+01;
9.4999999846e+00;1.6025865812e+01;
9.5039999846e+00;1.6747967253e+01;
9.5079999845e+00;1.3973756651e+01;
9.5119999845e+00;9.2081942686e+00;
9.5159999847e+00;5.4798361271e+00;
9.5199999847e+00;4.3237819077e+00;
9.5239999846e+00;4.7722785292e+00;
9.5279999846e+00;5.2712161641e+00;
9.5319999845e+00;5.3921723232e+00;
9.5359999845e+00;5.4130730525e+00;
9.5399999847e+00;5.4859548541e+00;
9.5439999846e+00;5.7781913136e+00;
9.5479999846e+00;6.5927495196e+00;
9.5519999845e+00;7.9367643483e+00;
9.5559999845e+00;9.3213898666e+00;
9.5599999847e+00;1.0173395259e+01;
9.5639999846e+00;1.0409664328e+01;
9.5679999846e+00;1.0510643795e+01;
9.5719999846e+00;1.0902862872e+01;
9.5759999845e+00;1.1576926134e+01;
9.5799999845e+00;1.2797048189e+01;
9.5839999847e+00;1.5458519286e+01;
9.5879999846e+00;1.9795119363e+01;
9.5919999846e+00;2.4496468533e+01;
9.5959999845e+00;2.7862992844e+01;
9.5999999845e+00;2.9285058872e+01;
9.6039999845e+00;2.9366201609e+01;
9.6079999844e+00;2.9234170198e+01;
9.6119999844e+00;2.9891740729e+01;
9.6159999843e+00;3.1533182155e+01;
9.6199999843e+00;3.3198646631e+01;
9.6239999845e+00;3.3398712597e+01;
9.6279999844e+00;3.1364053205e+01;
9.6319999844e+00;2.7824808093e+01;
9.6359999843e+00;2.4304330283e+01;
9.6399999843e+00;2.1775573501e+01;
9.6439999845e+00;2.0484223683e+01;
9.6479999844e+00;2.0418211843e+01;
9.6519999844e+00;2.0908270889e+01;
9.6559999844e+00;2.0439814575e+01;
9.6599999843e+00;1.8272618218e+01;
9.6639999843e+00;1.5586234706e+01;
9.6679999845e+00;1.3809899569e+01;
9.6719999844e+00;1.2807825470e+01;
9.6759999844e+00;1.1584581611e+01;
9.6799999843e+00;9.9683404504e+00;
9.6839999843e+00;8.8641836286e+00;
9.6879999845e+00;8.9083668063e+00;
9.6919999844e+00;9.7254374134e+00;
9.6959999844e+00;1.0929546148e+01;
9.6999999844e+00;1.2655858038e+01;
9.7039999843e+00;1.4465666438e+01;
9.7079999843e+00;1.5061159349e+01;
9.7119999845e+00;1.3905245799e+01;
9.7159999844e+00;1.2042734534e+01;
9.7199999844e+00;1.0660672691e+01;
9.7239999843e+00;9.8705813524e+00;
9.7279999843e+00;9.4257653613e+00;
9.7319999842e+00;9.5497267050e+00;
9.7359999842e+00;1.0319898424e+01;
9.7399999842e+00;1.1038258416e+01;
9.7439999841e+00;1.1101718636e+01;
9.7479999841e+00;1.0918098565e+01;
9.7519999843e+00;1.0946756474e+01;
9.7559999842e+00;1.0434271447e+01;
9.7599999842e+00;8.4786128108e+00;
9.7639999841e+00;5.7682618645e+00;
9.7679999841e+00;3.9135339580e+00;
9.7719999843e+00;3.7912678439e+00;
9.7759999842e+00;5.4151213826e+00;
9.7799999842e+00;8.5665307057e+00;
9.7839999842e+00;1.2700152574e+01;
9.7879999841e+00;1.6319055586e+01;
9.7919999841e+00;1.7473997555e+01;
9.7959999843e+00;1.5781766516e+01;
9.7999999842e+00;1.3083586805e+01;
9.8039999842e+00;1.1235587135e+01;
9.8079999841e+00;1.0419148815e+01;
9.8119999841e+00;1.0163810861e+01;
9.8159999843e+00;1.0287626431e+01;
9.8199999842e+00;1.0345344929e+01;
9.8239999842e+00;9.7191022449e+00;
9.8279999841e+00;8.6253961211e+00;
9.8319999841e+00;8.0871841245e+00;
9.8359999841e+00;8.5696776162e+00;
9.8399999843e+00;9.2294668584e+00;
9.8439999842e+00;8.9962782790e+00;
9.8479999842e+00;7.8758565215e+00;
9.8519999841e+00;6.5458840164e+00;
9.8559999841e+00;5.1376748232e+00;
9.8599999840e+00;3.2874437008e+00;
9.8639999840e+00;1.3113141566e+00;
9.8679999840e+00;3.8569024566e-01;
9.8719999839e+00;1.1447241978e+00;
9.8759999839e+00;2.9402885734e+00;
9.8799999841e+00;5.0233512353e+00;
9.8839999840e+00;7.3392817288e+00;
9.8879999840e+00;9.5266305717e+00;
9.8919999839e+00;1.0621047322e+01;
9.8959999839e+00;1.0388636264e+01;
9.8999999841e+00;9.5134999107e+00;
9.9039999840e+00;8.4119807564e+00;
9.9079999840e+00;7.1317083513e+00;
9.9119999839e+00;6.1547409710e+00;
9.9159999839e+00;6.3556465900e+00;
9.9199999839e+00;7.9407628569e+00;
9.9239999841e+00;9.8576587016e+00;
9.9279999840e+00;1.0831794567e+01;
9.9319999840e+00;1.0580272121e+01;
9.9359999839e+00;9.3916276698e+00;
9.9399999839e+00;7.2726438435e+00;
9.9439999841e+00;4.4662131144e+00;
9.9479999840e+00;2.1234243211e+00;
9.9519999840e+00;1.2654305517e+00;
9.9559999839e+00;1.5986167116e+00;
9.9599999839e+00;2.3845943543e+00;
9.9639999839e+00;3.7403395727e+00;
9.9679999840e+00;5.9602530306e+00;
9.9719999840e+00;8.0975184970e+00;
9.9759999840e+00;8.4696307218e+00;
9.9799999839e+00;6.6657786361e+00;
9.9839999839e+00;4.0681551791e+00;
9.9879999838e+00;2.1274466518e+00;
9.9919999838e+00;1.1877156770e+00;
9.9959999837e+00;1.3392317377e+00;
9.9999999837e+00;2.9273475843e+00;
1.0003999984e+01;5.5395856459e+00;
1.0007999984e+01;7.7511159981e+00;
1.0011999984e+01;8.5002916257e+00;
1.0015999984e+01;8.1349549186e+00;
1.0019999984e+01;7.7094249065e+00;
1.0023999984e+01;7.5550897118e+00;
1.0027999984e+01;7.1960798663e+00;
1.0031999984e+01;6.5106097017e+00;
1.0035999984e+01;6.0205322138e+00;
1.0039999984e+01;6.0121954044e+00;
1.0043999984e+01;6.2975417222e+00;
1.0047999984e+01;6.5933067070e+00;
1.0051999984e+01;5.8978734456e+00;
1.0055999984e+01;2.2329488967e+00;
1.0059999984e+01;-4.9797010426e+00;
1.0063999984e+01;-1.2968486876e+01;
1.0067999984e+01;-1.7840094956e+01;
1.0071999984e+01;-1.8002504622e+01;
1.0075999984e+01;-1.4746748750e+01;
1.0079999984e+01;-1.0761474906e+01;
1.0083999984e+01;-8.4679487308e+00;
1.0087999984e+01;-8.8894213717e+00;
1.0091999984e+01;-1.1358436928e+01;
1.0095999984e+01;-1.4019560449e+01;
1.0099999984e+01;-1.5161897786e+01;
1.0103999984e+01;-1.4635986304e+01;
1.0107999984e+01;-1.3494853852e+01;
1.0111999984e+01;-1.2237317063e+01;
1.0115999984e+01;-1.0588447372e+01;
1.0119999984e+01;-9.0488114948e+00;
1.0123999984e+01;-9.1389914327e+00;
1.0127999983e+01;-1.1479149166e+01;
1.0131999983e+01;-1.4528218230e+01;
1.0135999984e+01;-1.6145339467e+01;
1.0139999984e+01;-1.5981909791e+01;
1.0143999984e+01;-1.5114528371e+01;
1.0147999984e+01;-1.3982381367e+01;
1.0151999983e+01;-1.2453967608e+01;
1.0155999984e+01;-1.1165122104e+01;
1.0159999984e+01;-1.1044908271e+01;
1.0163999984e+01;-1.1832995877e+01;
1.0167999984e+01;-1.2195486294e+01;
1.0171999983e+01;-1.1381950311e+01;
1.0175999983e+01;-1.0077829344e+01;
1.0179999984e+01;-9.3195175317e+00;
1.0183999984e+01;-9.1612571597e+00;
1.0187999984e+01;-9.0407973274e+00;
1.0191999984e+01;-8.7741987898e+00;
1.0195999983e+01;-8.2727128472e+00;
1.0199999984e+01;-7.1540228429e+00;
1.0203999984e+01;-5.6469179727e+00;
1.0207999984e+01;-4.9825083350e+00;
1.0211999984e+01;-5.8993342810e+00;
1.0215999983e+01;-7.3218932312e+00;
1.0219999983e+01;-7.3775652403e+00;
1.0223999984e+01;-5.4818322563e+00;
1.0227999984e+01;-2.7541037141e+00;
1.0231999984e+01;-5.5148626864e-01;
1.0235999984e+01;6.2059868826e-01;
1.0239999983e+01;6.4454623917e-01;
1.0243999983e+01;-5.7837062702e-01;
1.0247999983e+01;-2.5685105231e+00;
1.0251999983e+01;-4.6161239920e+00;
1.0255999983e+01;-6.9125773420e+00;
1.0259999983e+01;-9.9361408146e+00;
1.0263999983e+01;-1.2716376913e+01;
1.0267999983e+01;-1.3411982845e+01;
1.0271999983e+01;-1.1834446071e+01;
1.0275999983e+01;-9.7496732904e+00;
1.0279999983e+01;-8.4830770739e+00;
1.0283999983e+01;-7.7876380647e+00;
1.0287999983e+01;-7.2781201317e+00;
1.0291999983e+01;-7.4082192746e+00;
1.0295999983e+01;-8.5486624786e+00;
1.0299999983e+01;-1.0331892658e+01;
1.0303999983e+01;-1.2327376873e+01;
1.0307999983e+01;-1.4564379820e+01;
1.0311999983e+01;-1.6975546632e+01;
1.0315999983e+01;-1.8752138416e+01;
1.0319999983e+01;-1.9037616723e+01;
1.0323999983e+01;-1.8216105546e+01;
1.0327999983e+01;-1.7550417605e+01;
1.0331999983e+01;-1.7375353268e+01;
1.0335999983e+01;-1.6743908725e+01;
1.0339999983e+01;-1.5283726069e+01;
1.0343999983e+01;-1.4044238796e+01;
1.0347999983e+01;-1.3823065032e+01;
1.0351999983e+01;-1.4071049702e+01;
1.0355999983e+01;-1.4185490013e+01;
1.0359999983e+01;-1.4576313979e+01;
1.0363999983e+01;-1.5613223670e+01;
1.0367999983e+01;-1.6562090232e+01;
1.0371999983e+01;-1.6443500660e+01;
1.0375999983e+01;-1.5172260337e+01;
1.0379999983e+01;-1.3194406349e+01;
1.0383999983e+01;-1.0797742316e+01;
1.0387999983e+01;-8.4382381921e+00;
1.0391999983e+01;-7.0897817919e+00;
1.0395999983e+01;-7.4127608903e+00;
1.0399999983e+01;-8.9187189462e+00;
1.0403999983e+01;-1.0755439187e+01;
1.0407999983e+01;-1.2712356104e+01;
1.0411999983e+01;-1.4623543067e+01;
1.0415999983e+01;-1.5735349567e+01;
1.0419999983e+01;-1.5648049985e+01;
1.0423999983e+01;-1.5125585693e+01;
1.0427999983e+01;-1.5056333692e+01;
1.0431999983e+01;-1.5077938635e+01;
1.0435999983e+01;-1.4150987892e+01;
1.0439999983e+01;-1.2324684840e+01;
1.0443999983e+01;-1.0862088906e+01;
1.0447999983e+01;-1.0442420698e+01;
1.0451999983e+01;-1.0620427327e+01;
1.0455999983e+01;-1.1379974453e+01;
1.0459999983e+01;-1.3402415612e+01;
1.0463999983e+01;-1.6292934615e+01;
1.0467999983e+01;-1.8131512570e+01;
1.0471999983e+01;-1.7582078076e+01;
1.0475999983e+01;-1.5530358402e+01;
1.0479999983e+01;-1.3490516706e+01;
1.0483999983e+01;-1.1128964438e+01;
1.0487999983e+01;-7.0317601301e+00;
1.0491999983e+01;-1.2509766819e+00;
1.0495999983e+01;4.6365248254e+00;
1.0499999983e+01;9.1252223654e+00;
1.0503999983e+01;1.1070656095e+01;
1.0507999983e+01;9.8149115713e+00;
1.0511999983e+01;6.3844816852e+00;
1.0515999983e+01;3.4224232591e+00;
1.0519999983e+01;2.8733831581e+00;
1.0523999983e+01;4.3555802032e+00;
1.0527999983e+01;6.2612572808e+00;
1.0531999983e+01;7.7410227531e+00;
1.0535999983e+01;9.0206168902e+00;
1.0539999983e+01;1.0212904958e+01;
1.0543999983e+01;1.0785928493e+01;
1.0547999983e+01;1.0327680451e+01;
1.0551999983e+01;8.8673418981e+00;
1.0555999983e+01;6.2941893099e+00;
1.0559999983e+01;2.6265674687e+00;
1.0563999983e+01;-9.6803970030e-01;
1.0567999983e+01;-2.5861736448e+00;
1.0571999983e+01;-1.4498115352e+00;
1.0575999983e+01;1.1601030827e+00;
1.0579999983e+01;3.2563575290e+00;
1.0583999983e+01;4.1693923802e+00;
1.0587999983e+01;4.4862396563e+00;
1.0591999983e+01;4.3836234321e+00;
1.0595999983e+01;3.4163334176e+00;
1.0599999983e+01;1.8625747289e+00;
1.0603999983e+01;9.0931321331e-01;
1.0607999983e+01;1.1879630687e+00;
1.0611999983e+01;2.0532185889e+00;
1.0615999983e+01;2.5862925004e+00;
1.0619999983e+01;2.3986903038e+00;
1.0623999983e+01;1.5084628738e+00;
1.0627999983e+01;4.1212012083e-01;
1.0631999983e+01;-5.7843531249e-02;
1.0635999983e+01;3.2351343986e-01;
1.0639999983e+01;8.1522938330e-01;
1.0643999983e+01;7.2958744690e-01;
1.0647999983e+01;3.4340294660e-01;
1.0651999983e+01;3.3358455799e-01;
1.0655999983e+01;5.6300622947e-01;
1.0659999983e+01;2.0240259776e-01;
1.0663999983e+01;-7.5932623167e-01;
1.0667999983e+01;-1.1840672537e+00;
1.0671999983e+01;-4.0399590158e-01;
1.0675999983e+01;8.8219711371e-01;
1.0679999983e+01;1.6847448992e+00;
1.0683999983e+01;1.7858482760e+00;
1.0687999983e+01;1.4429514545e+00;
1.0691999983e+01;8.1840857887e-01;
1.0695999983e+01;2.0785253961e-01;
1.0699999983e+01;3.5508131888e-01;
1.0703999983e+01;1.8399219217e+00;
1.0707999983e+01;4.1389693411e+00;
1.0711999983e+01;6.0092506246e+00;
1.0715999983e+01;6.9148804252e+00;
1.0719999983e+01;7.0994417167e+00;
1.0723999983e+01;6.4254094628e+00;
1.0727999983e+01;4.4989285397e+00;
1.0731999983e+01;1.8244140404e+00;
1.0735999983e+01;-2.2643295745e-01;
1.0739999983e+01;-7.9345358792e-01;
1.0743999983e+01;-4.2015070701e-01;
1.0747999983e+01;-1.8367062882e-01;
1.0751999983e+01;-2.4590766686e-01;
1.0755999983e+01;4.3197343824e-02;
1.0759999983e+01;8.4019299480e-01;
1.0763999983e+01;1.6115731923e+00;
1.0767999982e+01;2.1470676833e+00;
1.0771999982e+01;2.6923851748e+00;
1.0775999983e+01;3.1263874250e+00;
1.0779999983e+01;3.0053906017e+00;
1.0783999983e+01;2.3300603582e+00;
1.0787999982e+01;1.4120970124e+00;
1.0791999982e+01;2.6025710651e-01;
1.0795999983e+01;-1.1134402980e+00;
1.0799999983e+01;-2.0314037644e+00;
1.0803999983e+01;-1.7399909396e+00;
1.0807999982e+01;-1.0698156252e+00;
1.0811999982e+01;-2.5655226670e+00;
1.0815999982e+01;-7.9664664317e+00;
1.0819999983e+01;-1.6198283652e+01;
1.0823999983e+01;-2.4237771393e+01;
1.0827999983e+01;-2.8842621766e+01;
1.0831999982e+01;-2.7814007314e+01;
1.0835999982e+01;-2.1475852695e+01;
1.0839999983e+01;-1.3154096432e+01;
1.0843999983e+01;-7.1586312091e+00;
1.0847999983e+01;-5.7536936705e+00;
1.0851999982e+01;-8.2044716957e+00;
1.0855999982e+01;-1.2536669251e+01;
1.0859999982e+01;-1.7049796836e+01;
1.0863999983e+01;-1.9974313586e+01;
1.0867999983e+01;-1.9678504215e+01;
1.0871999983e+01;-1.6528248101e+01;
1.0875999982e+01;-1.3168412688e+01;
1.0879999982e+01;-1.1701081853e+01;
1.0883999982e+01;-1.1607692480e+01;
1.0887999982e+01;-1.1320132809e+01;
1.0891999982e+01;-1.0570098679e+01;
1.0895999982e+01;-1.0036521832e+01;
1.0899999982e+01;-9.8729584024e+00;
1.0903999982e+01;-9.8789070577e+00;
1.0907999982e+01;-1.0342007906e+01;
1.0911999982e+01;-1.1662724316e+01;
1.0915999982e+01;-1.3266281532e+01;
1.0919999982e+01;-1.3866939209e+01;
1.0923999982e+01;-1.3156137171e+01;
1.0927999982e+01;-1.2041496460e+01;
1.0931999982e+01;-1.1108036470e+01;
1.0935999982e+01;-1.0263015541e+01;
1.0939999982e+01;-9.6971289709e+00;
1.0943999982e+01;-9.8990055595e+00;
1.0947999982e+01;-1.0733902133e+01;
1.0951999982e+01;-1.1353964463e+01;
1.0955999982e+01;-1.1369900142e+01;
1.0959999982e+01;-1.1522626922e+01;
1.0963999982e+01;-1.2589250574e+01;
1.0967999982e+01;-1.4196720033e+01;
1.0971999982e+01;-1.5484362301e+01;
1.0975999982e+01;-1.6186971558e+01;
1.0979999982e+01;-1.6002836808e+01;
1.0983999982e+01;-1.4186335651e+01;
1.0987999982e+01;-1.1315904253e+01;
1.0991999982e+01;-9.6582933005e+00;
1.0995999982e+01;-1.0275027502e+01;
1.0999999982e+01;-1.1837686855e+01;
1.1003999982e+01;-1.3039913957e+01;
1.1007999982e+01;-1.3988414020e+01;
1.1011999982e+01;-1.4928702763e+01;
1.1015999982e+01;-1.5324985244e+01;
1.1019999982e+01;-1.4664597287e+01;
1.1023999982e+01;-1.3386706921e+01;
1.1027999982e+01;-1.2347145471e+01;
1.1031999982e+01;-1.1667566485e+01;
1.1035999982e+01;-1.0933505753e+01;
1.1039999982e+01;-1.0222449025e+01;
1.1043999982e+01;-1.0041267072e+01;
1.1047999982e+01;-1.0367159276e+01;
1.1051999982e+01;-1.0441857689e+01;
1.1055999982e+01;-9.8755600632e+00;
1.1059999982e+01;-9.3708759150e+00;
1.1063999982e+01;-9.5625912135e+00;
1.1067999982e+01;-9.9529785567e+00;
1.1071999982e+01;-1.0117862304e+01;
1.1075999982e+01;-1.0990874332e+01;
1.1079999982e+01;-1.3334439657e+01;
1.1083999982e+01;-1.5650483804e+01;
1.1087999982e+01;-1.5505167502e+01;
1.1091999982e+01;-1.2649189117e+01;
1.1095999982e+01;-9.3924316932e+00;
1.1099999982e+01;-8.1687738134e+00;
1.1103999982e+01;-9.6701683148e+00;
1.1107999982e+01;-1.2928590731e+01;
1.1111999982e+01;-1.6208971233e+01;
1.1115999982e+01;-1.7904126401e+01;
1.1119999982e+01;-1.7434170585e+01;
1.1123999982e+01;-1.5665920871e+01;
1.1127999982e+01;-1.4343649986e+01;
1.1131999982e+01;-1.4727512637e+01;
1.1135999982e+01;-1.6307999785e+01;
1.1139999982e+01;-1.6904452927e+01;
1.1143999982e+01;-1.4173191512e+01;
1.1147999982e+01;-6.9794807180e+00;
1.1151999982e+01;4.0656478498e+00;
1.1155999982e+01;1.6644624681e+01;
1.1159999982e+01;2.7712180004e+01;
1.1163999982e+01;3.5348974922e+01;
1.1167999982e+01;3.9774517581e+01;
1.1171999982e+01;4.2186255314e+01;
1.1175999982e+01;4.3131699721e+01;
1.1179999982e+01;4.2909748208e+01;
1.1183999982e+01;4.2626315660e+01;
1.1187999982e+01;4.3327976643e+01;
1.1191999982e+01;4.4622692089e+01;
1.1195999982e+01;4.5207071661e+01;
1.1199999982e+01;4.4465433481e+01;
1.1203999982e+01;4.2816872718e+01;
1.1207999982e+01;4.0737098123e+01;
1.1211999982e+01;3.8500283446e+01;
1.1215999982e+01;3.6757828529e+01;
1.1219999982e+01;3.6249201496e+01;
1.1223999982e+01;3.6764536834e+01;
1.1227999982e+01;3.7116427142e+01;
1.1231999982e+01;3.6785219273e+01;
1.1235999982e+01;3.6876048576e+01;
1.1239999982e+01;3.8309857642e+01;
1.1243999982e+01;4.0114026500e+01;
1.1247999982e+01;4.0814637711e+01;
1.1251999982e+01;4.0328990517e+01;
1.1255999982e+01;3.9338167027e+01;
1.1259999982e+01;3.8023806225e+01;
1.1263999982e+01;3.6402161331e+01;
1.1267999982e+01;3.4882315295e+01;
1.1271999982e+01;3.3663229881e+01;
1.1275999982e+01;3.2276534560e+01;
1.1279999982e+01;3.0617507020e+01;
1.1283999982e+01;2.9822010144e+01;
1.1287999982e+01;3.0903970530e+01;
1.1291999982e+01;3.2981788050e+01;
1.1295999982e+01;3.4098968311e+01;
1.1299999982e+01;3.3572834184e+01;
1.1303999982e+01;3.2521873991e+01;
1.1307999982e+01;3.2252206161e+01;
1.1311999982e+01;3.3058212673e+01;
1.1315999982e+01;3.4491898277e+01;
1.1319999982e+01;3.5842504943e+01;
1.1323999982e+01;3.6128795083e+01;
1.1327999982e+01;3.4665405227e+01;
1.1331999982e+01;3.2173160451e+01;
1.1335999982e+01;3.0248246270e+01;
1.1339999982e+01;2.9473477269e+01;
1.1343999982e+01;2.9052773125e+01;
1.1347999982e+01;2.8302092901e+01;
1.1351999982e+01;2.7713094137e+01;
1.1355999982e+01;2.8037994470e+01;
1.1359999982e+01;2.8823103429e+01;
1.1363999982e+01;2.9033099593e+01;
1.1367999982e+01;2.8830960735e+01;
1.1371999982e+01;2.9252643099e+01;
1.1375999982e+01;3.0340834514e+01;
1.1379999982e+01;3.1181759330e+01;
1.1383999982e+01;3.1456848370e+01;
1.1387999982e+01;3.1395379869e+01;
1.1391999982e+01;3.0632091466e+01;
1.1395999982e+01;2.8554443123e+01;
1.1399999982e+01;2.5641237930e+01;
1.1403999981e+01;2.3410538433e+01;
1.1407999981e+01;2.2882356387e+01;
1.1411999981e+01;2.3737980407e+01;
1.1415999982e+01;2.5072047435e+01;
1.1419999982e+01;2.6120002613e+01;
1.1423999981e+01;2.6019405563e+01;
1.1427999981e+01;2.4167356242e+01;
1.1431999981e+01;2.1461452564e+01;
1.1435999982e+01;1.9892267521e+01;
1.1439999982e+01;2.0340188887e+01;
1.1443999982e+01;2.1822077977e+01;
1.1447999981e+01;2.3172198954e+01;
1.1451999981e+01;2.4395701171e+01;
1.1455999981e+01;2.5804460627e+01;
1.1459999982e+01;2.6775050052e+01;
1.1463999982e+01;2.6427451376e+01;
1.1467999981e+01;2.5126479415e+01;
1.1471999981e+01;2.4214436547e+01;
1.1475999981e+01;2.4268916722e+01;
1.1479999982e+01;2.4630915882e+01;
1.1483999982e+01;2.4612649343e+01;
1.1487999982e+01;2.3999217931e+01;
1.1491999981e+01;2.2554460136e+01;
1.1495999981e+01;2.0460029077e+01;
1.1499999981e+01;1.9034738677e+01;
1.1503999982e+01;1.9636331996e+01;
1.1507999982e+01;2.1889184998e+01;
1.1511999981e+01;2.3900577063e+01;
1.1515999981e+01;2.4295944438e+01;
1.1519999981e+01;2.3402305277e+01;
1.1523999981e+01;2.2080710641e+01;
1.1527999981e+01;2.0315741473e+01;
1.1531999981e+01;1.8016563575e+01;
1.1535999981e+01;1.6076738102e+01;
1.1539999981e+01;1.5337435493e+01;
1.1543999981e+01;1.5578548239e+01;
1.1547999981e+01;1.6217740709e+01;
1.1551999981e+01;1.7102320716e+01;
1.1555999981e+01;1.8383434362e+01;
1.1559999981e+01;1.9919027941e+01;
1.1563999981e+01;2.1075105106e+01;
1.1567999981e+01;2.1571489284e+01;
1.1571999981e+01;2.2372305556e+01;
1.1575999981e+01;2.5333734747e+01;
1.1579999981e+01;3.1886397774e+01;
1.1583999981e+01;4.1806876485e+01;
1.1587999981e+01;5.2950806259e+01;
1.1591999981e+01;6.2170510877e+01;
1.1595999981e+01;6.7033223658e+01;
1.1599999981e+01;6.7073024481e+01;
1.1603999981e+01;6.3369115043e+01;
1.1607999981e+01;5.7436295213e+01;
1.1611999981e+01;5.0890520425e+01;
1.1615999981e+01;4.5406162916e+01;
1.1619999981e+01;4.2125856836e+01;
1.1623999981e+01;4.0835814781e+01;
1.1627999981e+01;3.9642868633e+01;
1.1631999981e+01;3.5997372646e+01;
1.1635999981e+01;2.8975892804e+01;
1.1639999981e+01;2.0323863242e+01;
1.1643999981e+01;1.2796136736e+01;
1.1647999981e+01;8.2797444032e+00;
1.1651999981e+01;7.4567719041e+00;
1.1655999981e+01;9.7417428447e+00;
1.1659999981e+01;1.3247925733e+01;
1.1663999981e+01;1.5863309832e+01;
1.1667999981e+01;1.6846751608e+01;
1.1671999981e+01;1.7021211552e+01;
1.1675999981e+01;1.7092090730e+01;
1.1679999981e+01;1.6638639770e+01;
1.1683999981e+01;1.5357449373e+01;
1.1687999981e+01;1.3820090877e+01;
1.1691999981e+01;1.2423655036e+01;
1.1695999981e+01;1.1143149442e+01;
1.1699999981e+01;1.0424830332e+01;
1.1703999981e+01;1.0732430788e+01;
1.1707999981e+01;1.1263358134e+01;
1.1711999981e+01;1.0658838903e+01;
1.1715999981e+01;8.9297976242e+00;
1.1719999981e+01;7.3919482173e+00;
1.1723999981e+01;6.7749029808e+00;
1.1727999981e+01;6.5644086616e+00;
1.1731999981e+01;6.4541990897e+00;
1.1735999981e+01;7.1520849618e+00;
1.1739999981e+01;8.7983088004e+00;
1.1743999981e+01;9.7853414905e+00;
1.1747999981e+01;8.5218016559e+00;
1.1751999981e+01;5.5869319080e+00;
1.1755999981e+01;3.0613186094e+00;
1.1759999981e+01;2.1998609919e+00;
1.1763999981e+01;2.5960881419e+00;
1.1767999981e+01;3.5074953309e+00;
1.1771999981e+01;4.8164933752e+00;
1.1775999981e+01;6.1926405658e+00;
1.1779999981e+01;6.7287048656e+00;
1.1783999981e+01;6.2199407390e+00;
1.1787999981e+01;5.5484157833e+00;
1.1791999981e+01;5.3537368770e+00;
1.1795999981e+01;5.4561298522e+00;
1.1799999981e+01;5.5657658272e+00;
1.1803999981e+01;5.5458003583e+00;
1.1807999981e+01;5.0095432843e+00;
1.1811999981e+01;3.5732922733e+00;
1.1815999981e+01;1.8775275308e+00;
1.1819999981e+01;1.4118733103e+00;
1.1823999981e+01;2.6686785400e+00;
1.1827999981e+01;4.3692230114e+00;
1.1831999981e+01;4.9490185382e+00;
1.1835999981e+01;3.9789732224e+00;
1.1839999981e+01;1.9467042517e+00;
1.1843999981e+01;-4.2339901696e-01;
1.1847999981e+01;-2.0243244080e+00;
1.1851999981e+01;-1.3569216493e+00;
1.1855999981e+01;2.1002258114e+00;
1.1859999981e+01;6.6057126308e+00;
1.1863999981e+01;9.2491090957e+00;
1.1867999981e+01;8.5962691186e+00;
1.1871999981e+01;5.7356825317e+00;
1.1875999981e+01;2.7766502262e+00;
1.1879999981e+01;1.0050294809e+00;
1.1883999981e+01;5.3524936317e-01;
1.1887999981e+01;9.2272097617e-01;
1.1891999981e+01;1.5854800204e+00;
1.1895999981e+01;2.2016792600e+00;
1.1899999981e+01;3.0573012452e+00;
1.1903999981e+01;4.1356342896e+00;
1.1907999981e+01;3.8518434814e+00;
1.1911999981e+01;2.1080204332e-01;
1.1915999981e+01;-6.2840925055e+00;
1.1919999981e+01;-1.1982832392e+01;
1.1923999981e+01;-1.3289141058e+01;
1.1927999981e+01;-1.0136246173e+01;
1.1931999981e+01;-5.4654489825e+00;
1.1935999981e+01;-2.1655157860e+00;
1.1939999981e+01;-1.7487258748e+00;
1.1943999981e+01;-4.5544928829e+00;
1.1947999981e+01;-9.4450561590e+00;
1.1951999981e+01;-1.4085598303e+01;
1.1955999981e+01;-1.6616647071e+01;
1.1959999981e+01;-1.6833350124e+01;
1.1963999981e+01;-1.5622447891e+01;
1.1967999981e+01;-1.3890491313e+01;
1.1971999981e+01;-1.2473776643e+01;
1.1975999981e+01;-1.2335799761e+01;
1.1979999981e+01;-1.3951516797e+01;
1.1983999981e+01;-1.6678833476e+01;
1.1987999981e+01;-1.9094640534e+01;
1.1991999981e+01;-2.0081635118e+01;
1.1995999981e+01;-1.9731058434e+01;
1.1999999981e+01;-1.8976512882e+01;
1.2003999981e+01;-1.8393602453e+01;
1.2007999981e+01;-1.7890685721e+01;
1.2011999981e+01;-1.7334563629e+01;
1.2015999981e+01;-1.6695146628e+01;
1.2019999981e+01;-1.5747813533e+01;
1.2023999981e+01;-1.4464035211e+01;
1.2027999981e+01;-1.3634867478e+01;
1.2031999981e+01;-1.4277306099e+01;
1.2035999981e+01;-1.6343549522e+01;
1.2039999980e+01;-1.8726008953e+01;
1.2043999980e+01;-2.0607922058e+01;
1.2047999980e+01;-2.1924634364e+01;
1.2051999980e+01;-2.2443651364e+01;
1.2055999981e+01;-2.1784044470e+01;
1.2059999980e+01;-2.0562166255e+01;
1.2063999980e+01;-2.0123555782e+01;
1.2067999980e+01;-2.0899425360e+01;
1.2071999980e+01;-2.1970481182e+01;
1.2075999981e+01;-2.2414303797e+01;
1.2079999981e+01;-2.2163945179e+01;
1.2083999980e+01;-2.1267318525e+01;
1.2087999980e+01;-1.9640686965e+01;
1.2091999980e+01;-1.8053450418e+01;
1.2095999980e+01;-1.7934802665e+01;
1.2099999981e+01;-1.9569762779e+01;
1.2103999980e+01;-2.1509669370e+01;
1.2107999980e+01;-2.2382881454e+01;
1.2111999980e+01;-2.2288412037e+01;
1.2115999980e+01;-2.1683976155e+01;
1.2119999981e+01;-2.0457178241e+01;
1.2123999981e+01;-1.9008938080e+01;
1.2127999980e+01;-1.8462058390e+01;
1.2131999980e+01;-1.9113155661e+01;
1.2135999980e+01;-2.0059968271e+01;
1.2139999980e+01;-2.0613306722e+01;
1.2143999981e+01;-2.1482321346e+01;
1.2147999980e+01;-2.4191818678e+01;
1.2151999980e+01;-2.8566824992e+01;
1.2155999980e+01;-3.1220762237e+01;
1.2159999980e+01;-2.8196942926e+01;
1.2163999980e+01;-1.9069576306e+01;
1.2167999980e+01;-7.5996143287e+00;
1.2171999980e+01;1.0972825070e+00;
1.2175999980e+01;3.9054790586e+00;
1.2179999980e+01;1.4658043711e+00;
1.2183999980e+01;-2.8267193716e+00;
1.2187999980e+01;-5.8984095887e+00;
1.2191999980e+01;-7.2030847678e+00;
1.2195999980e+01;-8.0463980092e+00;
1.2199999980e+01;-9.4361389102e+00;
1.2203999980e+01;-1.1173294330e+01;
1.2207999980e+01;-1.2791705755e+01;
1.2211999980e+01;-1.4557650544e+01;
1.2215999980e+01;-1.6860658445e+01;
1.2219999980e+01;-1.8945789223e+01;
1.2223999980e+01;-1.9544813762e+01;
1.2227999980e+01;-1.8745596523e+01;
1.2231999980e+01;-1.7658699244e+01;
1.2235999980e+01;-1.6483377727e+01;
1.2239999980e+01;-1.4566137363e+01;
1.2243999980e+01;-1.2005249527e+01;
1.2247999980e+01;-9.8270650017e+00;
1.2251999980e+01;-8.7250487818e+00;
1.2255999980e+01;-8.3903423762e+00;
1.2259999980e+01;-8.1320062508e+00;
1.2263999980e+01;-7.6772185504e+00;
1.2267999980e+01;-7.1095835841e+00;
1.2271999980e+01;-6.5873113056e+00;
1.2275999980e+01;-6.4927418060e+00;
1.2279999980e+01;-7.1989338589e+00;
1.2283999980e+01;-8.3045446561e+00;
1.2287999980e+01;-8.8068642886e+00;
1.2291999980e+01;-8.4586861371e+00;
1.2295999980e+01;-8.0667163930e+00;
1.2299999980e+01;-8.0786469569e+00;
1.2303999980e+01;-8.0632593199e+00;
1.2307999980e+01;-7.9009463685e+00;
1.2311999980e+01;-8.1892359722e+00;
1.2315999980e+01;-8.9463887322e+00;
1.2319999980e+01;-9.0094124442e+00;
1.2323999980e+01;-7.6136328918e+00;
1.2327999980e+01;-5.8140674881e+00;
1.2331999980e+01;-5.2310639587e+00;
1.2335999980e+01;-5.8515523109e+00;
1.2339999980e+01;-6.1535515827e+00;
1.2343999980e+01;-5.2077478170e+00;
1.2347999980e+01;-3.5520266257e+00;
1.2351999980e+01;-1.7660622369e+00;
1.2355999980e+01;4.1098135337e-01;
1.2359999980e+01;2.6238538823e+00;
1.2363999980e+01;2.8503622958e+00;
1.2367999980e+01;-9.9489588663e-01;
1.2371999980e+01;-8.8892360115e+00;
1.2375999980e+01;-1.8503220522e+01;
1.2379999980e+01;-2.6577644138e+01;
1.2383999980e+01;-3.0363383085e+01;
1.2387999980e+01;-2.8871827614e+01;
1.2391999980e+01;-2.3883489512e+01;
1.2395999980e+01;-1.9167637075e+01;
1.2399999980e+01;-1.7466208008e+01;
1.2403999980e+01;-1.8549217507e+01;
1.2407999980e+01;-2.0697272046e+01;
1.2411999980e+01;-2.2837488255e+01;
1.2415999980e+01;-2.4469865872e+01;
1.2419999980e+01;-2.4872226018e+01;
1.2423999980e+01;-2.3764590111e+01;
1.2427999980e+01;-2.2252454982e+01;
1.2431999980e+01;-2.1872422217e+01;
1.2435999980e+01;-2.2862456664e+01;
1.2439999980e+01;-2.4347121472e+01;
1.2443999980e+01;-2.5935283481e+01;
1.2447999980e+01;-2.7858076172e+01;
1.2451999980e+01;-2.9540233938e+01;
1.2455999980e+01;-2.9647215537e+01;
1.2459999980e+01;-2.8021580218e+01;
1.2463999980e+01;-2.6257492810e+01;
1.2467999980e+01;-2.5902447161e+01;
1.2471999980e+01;-2.6910117911e+01;
1.2475999980e+01;-2.8035088883e+01;
1.2479999980e+01;-2.8485426133e+01;
1.2483999980e+01;-2.9331292370e+01;
1.2487999980e+01;-3.3051298569e+01;
1.2491999980e+01;-4.1609114355e+01;
1.2495999980e+01;-5.5032639517e+01;
1.2499999980e+01;-7.0831739041e+01;
1.2503999980e+01;-8.4534671673e+01;
1.2507999980e+01;-9.2186929463e+01;
1.2511999980e+01;-9.3049284762e+01;
1.2515999980e+01;-8.9675218697e+01;
1.2519999980e+01;-8.5498700466e+01;
1.2523999980e+01;-8.2719779004e+01;
1.2527999980e+01;-8.2043640192e+01;
1.2531999980e+01;-8.2917877894e+01;
1.2535999980e+01;-8.3747125899e+01;
1.2539999980e+01;-8.3219479425e+01;
1.2543999980e+01;-8.1613315677e+01;
1.2547999980e+01;-8.0171451184e+01;
1.2551999980e+01;-7.9574861811e+01;
1.2555999980e+01;-7.9615530857e+01;
1.2559999980e+01;-7.9964369961e+01;
1.2563999980e+01;-8.0485485571e+01;
1.2567999980e+01;-8.0987968759e+01;
1.2571999980e+01;-8.1378929588e+01;
1.2575999980e+01;-8.2094853483e+01;
1.2579999980e+01;-8.3789944664e+01;
1.2583999980e+01;-8.6066924949e+01;
1.2587999980e+01;-8.7094077833e+01;
1.2591999980e+01;-8.5417969024e+01;
1.2595999980e+01;-8.1771378472e+01;
1.2599999980e+01;-7.8328897379e+01;
1.2603999980e+01;-7.6455527520e+01;
1.2607999980e+01;-7.5998352201e+01;
1.2611999980e+01;-7.6447619869e+01;
1.2615999980e+01;-7.7366539981e+01;
1.2619999980e+01;-7.7799847344e+01;
1.2623999980e+01;-7.6696194285e+01;
1.2627999980e+01;-7.4130692333e+01;
1.2631999980e+01;-7.1615381040e+01;
1.2635999980e+01;-7.0962351105e+01;
1.2639999980e+01;-7.2779586630e+01;
1.2643999980e+01;-7.6242031424e+01;
1.2647999980e+01;-7.9852048363e+01;
1.2651999980e+01;-8.2053411002e+01;
1.2655999980e+01;-8.2016995807e+01;
1.2659999980e+01;-8.0430755810e+01;
1.2663999980e+01;-7.8935855020e+01;
1.2667999980e+01;-7.8420644593e+01;
1.2671999980e+01;-7.8519644548e+01;
1.2675999979e+01;-7.8949900936e+01;
1.2679999979e+01;-7.9999927214e+01;
1.2683999979e+01;-8.1188919374e+01;
1.2687999979e+01;-8.0971019680e+01;
1.2691999979e+01;-7.8601076956e+01;
1.2695999980e+01;-7.5178687861e+01;
1.2699999979e+01;-7.2210260138e+01;
1.2703999979e+01;-7.0072936781e+01;
1.2707999979e+01;-6.8478602829e+01;
1.2711999979e+01;-6.7733068279e+01;
1.2715999980e+01;-6.8485838990e+01;
1.2719999979e+01;-7.0239137772e+01;
1.2723999979e+01;-7.1408532782e+01;
1.2727999979e+01;-7.1211270007e+01;
1.2731999979e+01;-7.0312774793e+01;
1.2735999979e+01;-6.9525844502e+01;
1.2739999980e+01;-6.8982636559e+01;
1.2743999979e+01;-6.8536511149e+01;
1.2747999979e+01;-6.7982932794e+01;
1.2751999979e+01;-6.6819339666e+01;
1.2755999979e+01;-6.4597942141e+01;
1.2759999980e+01;-6.1702510075e+01;
1.2763999979e+01;-5.9077459686e+01;
1.2767999979e+01;-5.7049317852e+01;
1.2771999979e+01;-5.5301138125e+01;
1.2775999979e+01;-5.4277627715e+01;
1.2779999979e+01;-5.5361046252e+01;
1.2783999979e+01;-5.8776150702e+01;
1.2787999979e+01;-6.2518273336e+01;
1.2791999979e+01;-6.4455442994e+01;
1.2795999979e+01;-6.4498035281e+01;
1.2799999979e+01;-6.3806043859e+01;
1.2803999979e+01;-6.2873737980e+01;
1.2807999979e+01;-6.1570559058e+01;
1.2811999979e+01;-6.0327008734e+01;
1.2815999979e+01;-5.9844649285e+01;
1.2819999979e+01;-5.9972998948e+01;
1.2823999979e+01;-5.9956051102e+01;
1.2827999979e+01;-5.9561963633e+01;
1.2831999979e+01;-5.9385636582e+01;
1.2835999979e+01;-5.9957331711e+01;
1.2839999979e+01;-6.0619345730e+01;
1.2843999979e+01;-5.9931814009e+01;
1.2847999979e+01;-5.7652145730e+01;
1.2851999979e+01;-5.5747086909e+01;
1.2855999979e+01;-5.6999885215e+01;
1.2859999979e+01;-6.2492307184e+01;
1.2863999979e+01;-7.0312090797e+01;
1.2867999979e+01;-7.6782425560e+01;
1.2871999979e+01;-7.9147834240e+01;
1.2875999979e+01;-7.7549278344e+01;
1.2879999979e+01;-7.4603711314e+01;
1.2883999979e+01;-7.2844194531e+01;
1.2887999979e+01;-7.2856423108e+01;
1.2891999979e+01;-7.3952875427e+01;
1.2895999979e+01;-7.5599668798e+01;
1.2899999979e+01;-7.7402917972e+01;
1.2903999979e+01;-7.8448869206e+01;
1.2907999979e+01;-7.7923776276e+01;
1.2911999979e+01;-7.6188036086e+01;
1.2915999979e+01;-7.4248729945e+01;
1.2919999979e+01;-7.2419247857e+01;
1.2923999979e+01;-7.0291522767e+01;
1.2927999979e+01;-6.8036054608e+01;
1.2931999979e+01;-6.6882732869e+01;
1.2935999979e+01;-6.7679387865e+01;
1.2939999979e+01;-6.9661769439e+01;
1.2943999979e+01;-7.1239430846e+01;
1.2947999979e+01;-7.1390725940e+01;
1.2951999979e+01;-6.9935589143e+01;
1.2955999979e+01;-6.7151320550e+01;
1.2959999979e+01;-6.3910719975e+01;
1.2963999979e+01;-6.1877303313e+01;
1.2967999979e+01;-6.2449896697e+01;
1.2971999979e+01;-6.5273962826e+01;
1.2975999979e+01;-6.8608404263e+01;
1.2979999979e+01;-7.1137514242e+01;
1.2983999979e+01;-7.2469764213e+01;
1.2987999979e+01;-7.2162076218e+01;
1.2991999979e+01;-6.9703344590e+01;
1.2995999979e+01;-6.5662421100e+01;
1.2999999979e+01;-6.1721299397e+01;
1.3003999979e+01;-5.9014423021e+01;
1.3007999979e+01;-5.6955988332e+01;
1.3011999979e+01;-5.4298028982e+01;
1.3015999979e+01;-5.0906474111e+01;
1.3019999979e+01;-4.7762545852e+01;
1.3023999979e+01;-4.5996695883e+01;
1.3027999979e+01;-4.6631546012e+01;
1.3031999979e+01;-4.9827529119e+01;
1.3035999979e+01;-5.3663048660e+01;
1.3039999979e+01;-5.5124305203e+01;
1.3043999979e+01;-5.2888658328e+01;
1.3047999979e+01;-4.8454333650e+01;
1.3051999979e+01;-4.4449751823e+01;
1.3055999979e+01;-4.2417448086e+01;
1.3059999979e+01;-4.2536516947e+01;
1.3063999979e+01;-4.4547069763e+01;
1.3067999979e+01;-4.7600846487e+01;
1.3071999979e+01;-4.9938537460e+01;
1.3075999979e+01;-5.0256629664e+01;
1.3079999979e+01;-4.8840924382e+01;
1.3083999979e+01;-4.6757565604e+01;
1.3087999979e+01;-4.4838151926e+01;
1.3091999979e+01;-4.3649537035e+01;
1.3095999979e+01;-4.3507075340e+01;
1.3099999979e+01;-4.3967152855e+01;
1.3103999979e+01;-4.3884904728e+01;
1.3107999979e+01;-4.2734850834e+01;
1.3111999979e+01;-4.1497745692e+01;
1.3115999979e+01;-4.1249036619e+01;
1.3119999979e+01;-4.1169648672e+01;
1.3123999979e+01;-3.9533219998e+01;
1.3127999979e+01;-3.6422733962e+01;
1.3131999979e+01;-3.3605529949e+01;
1.3135999979e+01;-3.2134651833e+01;
1.3139999979e+01;-3.1672177728e+01;
1.3143999979e+01;-3.1784094654e+01;
1.3147999979e+01;-3.2568599563e+01;
1.3151999979e+01;-3.3850359154e+01;
1.3155999979e+01;-3.4845573586e+01;
1.3159999979e+01;-3.5024994934e+01;
1.3163999979e+01;-3.4534869064e+01;
1.3167999979e+01;-3.3763184460e+01;
1.3171999979e+01;-3.3142056216e+01;
1.3175999979e+01;-3.3303049954e+01;
1.3179999979e+01;-3.4912213420e+01;
1.3183999979e+01;-3.7985912878e+01;
1.3187999979e+01;-4.1468740992e+01;
1.3191999979e+01;-4.3923547757e+01;
1.3195999979e+01;-4.4743847611e+01;
1.3199999979e+01;-4.4349057792e+01;
1.3203999978e+01;-4.3138991192e+01;
1.3207999979e+01;-4.1107167643e+01;
1.3211999979e+01;-3.8724797061e+01;
1.3215999979e+01;-3.6937418939e+01;
1.3219999979e+01;-3.6132265547e+01;
1.3223999979e+01;-3.6132616817e+01;
1.3227999979e+01;-3.6852703784e+01;
1.3231999979e+01;-3.8149468200e+01;
1.3235999979e+01;-3.9270408835e+01;
1.3239999979e+01;-3.9229476165e+01;
1.3243999979e+01;-3.8038189725e+01;
1.3247999978e+01;-3.6785802249e+01;
1.3251999979e+01;-3.6076532815e+01;
1.3255999979e+01;-3.5337920628e+01;
1.3259999979e+01;-3.4102826329e+01;
1.3263999979e+01;-3.3012895563e+01;
1.3267999979e+01;-3.2930560080e+01;
1.3271999979e+01;-3.3619406551e+01;
1.3275999979e+01;-3.4068014930e+01;
1.3279999979e+01;-3.3931491218e+01;
1.3283999979e+01;-3.3719405633e+01;
1.3287999979e+01;-3.3560339039e+01;
1.3291999978e+01;-3.2886385226e+01;
1.3295999979e+01;-3.1537598537e+01;
1.3299999979e+01;-3.0148702344e+01;
1.3303999979e+01;-2.9168585336e+01;
1.3307999979e+01;-2.8444540460e+01;
1.3311999978e+01;-2.8046530898e+01;
1.3315999978e+01;-2.8476662360e+01;
1.3319999978e+01;-2.9594104387e+01;
1.3323999978e+01;-3.0373649430e+01;
1.3327999978e+01;-3.0252732785e+01;
1.3331999978e+01;-2.9589564484e+01;
1.3335999978e+01;-2.8634788657e+01;
1.3339999978e+01;-2.7409203691e+01;
1.3343999978e+01;-2.6600964349e+01;
1.3347999978e+01;-2.7325008013e+01;
1.3351999978e+01;-2.9628152278e+01;
1.3355999978e+01;-3.1916944723e+01;
1.3359999978e+01;-3.2488513808e+01;
1.3363999978e+01;-3.1255363107e+01;
1.3367999978e+01;-2.9074892382e+01;
1.3371999978e+01;-2.5916227319e+01;
1.3375999978e+01;-2.1244439644e+01;
1.3379999978e+01;-1.5935400604e+01;
1.3383999978e+01;-1.2251948435e+01;
1.3387999978e+01;-1.1843019978e+01;
1.3391999978e+01;-1.4509403837e+01;
1.3395999978e+01;-1.8656323785e+01;
1.3399999978e+01;-2.2210224609e+01;
1.3403999978e+01;-2.3447973645e+01;
1.3407999978e+01;-2.2094530412e+01;
1.3411999978e+01;-1.9676993196e+01;
1.3415999978e+01;-1.8031647671e+01;
1.3419999978e+01;-1.7672190683e+01;
1.3423999978e+01;-1.8095175514e+01;
1.3427999978e+01;-1.8950604923e+01;
1.3431999978e+01;-2.0025473695e+01;
1.3435999978e+01;-2.0510316033e+01;
1.3439999978e+01;-1.9631858617e+01;
1.3443999978e+01;-1.8262804539e+01;
1.3447999978e+01;-1.8275774116e+01;
1.3451999978e+01;-1.9903830169e+01;
1.3455999978e+01;-2.1372543468e+01;
1.3459999978e+01;-2.1281967938e+01;
1.3463999978e+01;-2.0104333246e+01;
1.3467999978e+01;-1.9104379717e+01;
1.3471999978e+01;-1.8660666087e+01;
1.3475999978e+01;-1.8376542784e+01;
1.3479999978e+01;-1.8207443904e+01;
